"[[3.07614572e-02 1.41798079e-03 1.85318233e-04]
 [3.08228131e-02 1.42819128e-03 9.42554521e-04]
 [3.09815980e-02 1.44592294e-03 2.58442285e-03]
 [3.13139311e-02 1.46673376e-03 5.38440406e-03]
 [3.19489460e-02 1.48548814e-03 9.77900897e-03]
 [3.30848296e-02 1.49874203e-03 1.63988313e-02]
 [3.50050096e-02 1.50628774e-03 2.60799498e-02]
 [3.80918874e-02 1.51347504e-03 3.98520278e-02]
 [4.28283239e-02 1.53273042e-03 5.88766324e-02]
 [4.97888994e-02 1.58392541e-03 8.43354747e-02]
 [5.96081057e-02 1.69447726e-03 1.17261734e-01]
 [7.29279525e-02 1.89688864e-03 1.58333965e-01]
 [9.03264603e-02 2.22596485e-03 2.07660482e-01]
 [1.12232656e-01 2.71477194e-03 2.64597434e-01]
 [1.38849391e-01 3.38896612e-03 3.27645781e-01]
 [1.70088450e-01 4.26307650e-03 3.94467497e-01]
 [2.05541211e-01 5.33605559e-03 4.62036071e-01]
 [2.44493686e-01 6.58919937e-03 5.26914552e-01]
 [2.85980635e-01 7.98628488e-03 5.85614043e-01]
 [3.28877302e-01 9.47508925e-03 6.34981827e-01]
 [3.72006691e-01 1.09927260e-02 6.72541011e-01]
 [4.14245207e-01 1.24712688e-02 6.96728808e-01]
 [4.54609341e-01 1.38452352e-02 7.06996088e-01]
 [4.92307382e-01 1.50586359e-02 7.03767397e-01]
 [5.26761792e-01 1.60707744e-02 6.88281070e-01]
 [5.57602710e-01 1.68604237e-02 6.62358545e-01]
 [5.84638402e-01 1.74268812e-02 6.28148824e-01]
 [6.07823989e-01 1.77885123e-02 5.87894022e-01]
 [6.27228067e-01 1.79786728e-02 5.43743483e-01]
 [6.42999914e-01 1.80398096e-02 4.97632315e-01]
 [6.55349275e-01 1.80172347e-02 4.51216961e-01]
 [6.64520013e-01 1.79522654e-02 4.05854739e-01]
 [6.70770208e-01 1.78777005e-02 3.62613692e-01]
 [6.74346183e-01 1.78145465e-02 3.22295204e-01]
 [6.75464514e-01 1.77707636e-02 2.85461362e-01]
 [6.74295986e-01 1.77426949e-02 2.52459464e-01]
 [6.70957703e-01 1.77167862e-02 2.23445004e-01]
 [6.65520576e-01 1.76735367e-02 1.98406655e-01]
 [6.58018720e-01 1.75910208e-02 1.77193198e-01]
 [6.48475888e-01 1.74484469e-02 1.59543362e-01]
 [6.36923482e-01 1.72294611e-02 1.45120186e-01]
 [6.23418767e-01 1.69242093e-02 1.33536214e-01]
 [6.08050488e-01 1.65305727e-02 1.24392772e-01]
 [5.90938071e-01 1.60546005e-02 1.17304797e-01]
 [5.72226875e-01 1.55086012e-02 1.11917368e-01]
 [5.52077602e-01 1.49106860e-02 1.07915170e-01]
 [5.30658454e-01 1.42818945e-02 1.05026153e-01]
 [5.08147087e-01 1.36446297e-02 1.03021075e-01]
 [4.84733357e-01 1.30204226e-02 1.01706828e-01]
 [4.60633619e-01 1.24284944e-02 1.00924590e-01]
 [4.36098559e-01 1.18848769e-02 1.00542803e-01]
 [4.11420493e-01 1.14013275e-02 1.00455344e-01]
 [3.86931561e-01 1.09856569e-02 1.00576452e-01]
 [3.62989398e-01 1.06410454e-02 1.00835355e-01]
 [3.39955138e-01 1.03657720e-02 1.01170771e-01]
 [3.18159180e-01 1.01540805e-02 1.01527137e-01]
 [2.97875155e-01 9.99510379e-03 1.01850799e-01]
 [2.79294468e-01 9.87462756e-03 1.02091500e-01]
 [2.62509876e-01 9.77578463e-03 1.02205983e-01]
 [2.47514378e-01 9.68079584e-03 1.02166008e-01]
 [2.34213534e-01 9.57364955e-03 1.01963794e-01]
 [2.22448045e-01 9.44171237e-03 1.01616989e-01]
 [2.12023576e-01 9.27832982e-03 1.01168675e-01]
 [2.02740949e-01 9.08377416e-03 1.00684875e-01]
 [1.94424030e-01 8.86489108e-03 1.00244475e-01]
 [1.86937482e-01 8.63403640e-03 9.99271889e-02]
 [1.80190071e-01 8.40573526e-03 9.98007873e-02]
 [1.74137035e-01 8.19374757e-03 9.99119675e-02]
 [1.68761983e-01 8.00738961e-03 1.00277063e-01]
 [1.64060361e-01 7.84946824e-03 1.00878757e-01]
 [1.60022006e-01 7.71538233e-03 1.01666805e-01]
 [1.56611122e-01 7.59402083e-03 1.02562026e-01]
 [1.53765464e-01 7.47067837e-03 1.03466466e-01]
 [1.51387007e-01 7.32995324e-03 1.04274340e-01]
 [1.49356667e-01 7.15973457e-03 1.04884389e-01]
 [1.47543067e-01 6.95397868e-03 1.05212851e-01]
 [1.45820032e-01 6.71359647e-03 1.05203404e-01]
 [1.44081157e-01 6.44686863e-03 1.04833494e-01]
 [1.42249983e-01 6.16739219e-03 1.04113516e-01]
 [1.40289777e-01 5.89162989e-03 1.03081690e-01]
 [1.38200267e-01 5.63632343e-03 1.01794122e-01]
 [1.36016715e-01 5.41557570e-03 1.00313865e-01]
 [1.33800416e-01 5.23854250e-03 9.87008976e-02]
 [1.31629077e-01 5.10857811e-03 9.70048747e-02]
 [1.29584787e-01 5.02250868e-03 9.52657310e-02]
 [1.27742570e-01 4.97162835e-03 9.35161894e-02]
 [1.26162017e-01 4.94211201e-03 9.17896389e-02]
 [1.24880061e-01 4.91714071e-03 9.01255242e-02]
 [1.23905207e-01 4.87890482e-03 8.85746897e-02]
 [1.23226163e-01 4.81122609e-03 8.71973009e-02]
 [1.22810177e-01 4.70159769e-03 8.60559508e-02]
 [1.22613080e-01 4.54339202e-03 8.52061707e-02]
 [1.22586756e-01 4.33724584e-03 8.46820195e-02]
 [1.22682778e-01 4.09099264e-03 8.44865628e-02]
 [1.22857771e-01 3.81957473e-03 8.45870719e-02]
 [1.23071174e-01 3.54289032e-03 8.49138919e-02]
 [1.23290051e-01 3.28371663e-03 8.53690441e-02]
 [1.23484502e-01 3.06497477e-03 8.58427511e-02]
 [1.23629252e-01 2.90663576e-03 8.62297655e-02]
 [1.23706081e-01 2.82356780e-03 8.64462615e-02]]","[[0.27835719 0.00750357 0.04739753]
 [0.27832504 0.00748284 0.04644887]
 [0.27825094 0.00744574 0.04470333]
 [0.27811425 0.00740058 0.04246171]
 [0.27789575 0.00735998 0.04015792]
 [0.27758897 0.00734052 0.03834597]
 [0.27721203 0.00736399 0.03768773]
 [0.27681594 0.00745913 0.03895076]
 [0.276489   0.00766412 0.04300749]
 [0.27635185 0.00802907 0.0508312 ]
 [0.27654557 0.00861689 0.06347465]
 [0.27721317 0.00950181 0.08202527]
 [0.27847639 0.01076449 0.1075226 ]
 [0.28041467 0.01248262 0.14083991]
 [0.28305087 0.01471927 0.18253637]
 [0.28634376 0.01750737 0.23270335]
 [0.29019138 0.02083622 0.29082747]
 [0.29444213 0.02464042 0.35571001]
 [0.29890609 0.02879557 0.42546387]
 [0.3033664  0.03312229 0.49760023]
 [0.30758078 0.03739878 0.56920638]
 [0.31128599 0.04138153 0.63718579]
 [0.31419535 0.04483063 0.69853005]
 [0.31600961 0.04753601 0.75057396]
 [0.31643236 0.04934128 0.79120664]
 [0.31520254 0.05015924 0.81900694]
 [0.31213247 0.04997921 0.83329669]
 [0.30714184 0.04886404 0.83412645]
 [0.30028454 0.04693871 0.82220146]
 [0.29175642 0.04437306 0.79877082]
 [0.28187839 0.04136045 0.76549591]
 [0.27106137 0.03809789 0.72431263]
 [0.25975837 0.03476784 0.67729264]
 [0.24841404 0.03152533 0.62651475]
 [0.23741821 0.02848995 0.57394936]
 [0.22707312 0.02574295 0.52136417]
 [0.21758043 0.0233299  0.47026057]
 [0.20904288 0.02126547 0.42183515]
 [0.2014824  0.01954106 0.37697549]
 [0.19486513 0.01813277 0.33627584]
 [0.18912908 0.01700821 0.30007126]
 [0.18420708 0.01613337 0.26848306]
 [0.18003616 0.01547535 0.24145279]
 [0.17656232 0.01500497 0.21880586]
 [0.17373508 0.01469667 0.20026184]
 [0.17149374 0.01452728 0.18547549]
 [0.1697584  0.01447505 0.17405963]
 [0.16842811 0.01451788 0.1656007 ]
 [0.16738508 0.01463305 0.15967291]
 [0.16650852 0.01479705 0.15584765]
 [0.1656943  0.01498619 0.15370267]
 [0.16487129 0.01517867 0.15283314]
 [0.16400822 0.01535489 0.15285908]
 [0.16311988 0.01549976 0.15344114]
 [0.16225343 0.01560343 0.15429387]
 [0.16147478 0.01566115 0.15519848]
 [0.1608484  0.01567383 0.1560079 ]
 [0.16042246 0.01564652 0.15665057]
 [0.16021327 0.01558706 0.15711994]
 [0.16020441 0.0155041  0.15745699]
 [0.16034893 0.01540479 0.15773181]
 [0.16058282 0.01529361 0.15802103]
 [0.16083518 0.01517057 0.15838766]
 [0.16104752 0.01503138 0.15886813]
 [0.1611811  0.01486815 0.15946826]
 [0.16122507 0.01467031 0.16016208]
 [0.16118734 0.01442792 0.16089996]
 [0.16108743 0.0141331  0.16161788]
 [0.16093868 0.01378266 0.1622423 ]
 [0.16073168 0.01337934 0.16270136]
 [0.16042353 0.01293178 0.16293069]
 [0.15993841 0.01245409 0.16288143]
 [0.15917512 0.01196343 0.16252674]
 [0.15802061 0.01147815 0.16187182]
 [0.15637524 0.01101503 0.16096474]
 [0.15417651 0.01058726 0.15990224]
 [0.15141951 0.01020401 0.1588349 ]
 [0.14817035 0.00986928 0.1579604 ]
 [0.14456956 0.00958308 0.15751899]
 [0.14082305 0.00934186 0.15777714]
 [0.13718278 0.00913975 0.15901501]
 [0.13391261 0.00896957 0.16151711]
 [0.13125111 0.00882319 0.16556428]
 [0.1293741  0.00869274 0.17143449]
 [0.12836277 0.00857046 0.17940044]
 [0.12818506 0.00844957 0.18972934]
 [0.12869492 0.0083245  0.20267091]
 [0.12965    0.00819128 0.21843602]
 [0.13074509 0.00804781 0.2371599 ]
 [0.13166092 0.00789335 0.25885469]
 [0.13211118 0.00772887 0.28335815]
 [0.13188705 0.00755648 0.31028255]
 [0.13088877 0.00737929 0.33897862]
 [0.12914447 0.00720178 0.36852268]
 [0.12680378 0.00702907 0.39773801]
 [0.12411716 0.00686795 0.42525635]
 [0.12139987 0.0067258  0.44961723]
 [0.11898643 0.00661035 0.46939927]
 [0.1171809  0.00652875 0.48336302]
 [0.11621573 0.00648639 0.49058875]]","[[0.03948601 0.00403555 0.05475208]
 [0.0417731  0.0043541  0.06142833]
 [0.04649788 0.00500404 0.07498679]
 [0.05394131 0.00600802 0.09578381]
 [0.06446245 0.00739388 0.12422285]
 [0.07843697 0.00918673 0.16061328]
 [0.09616306 0.01139934 0.20501606]
 [0.11777359 0.01402168 0.25709609]
 [0.14313929 0.01701082 0.31600508]
 [0.17179848 0.02028422 0.38031485]
 [0.20291864 0.02371794 0.4480299 ]
 [0.23530931 0.02715152 0.51668807]
 [0.26748986 0.03040001 0.58350466]
 [0.29781194 0.03327127 0.64559063]
 [0.324623   0.03558671 0.70019922]
 [0.34644286 0.03720203 0.74495372]
 [0.3621299  0.03802346 0.77804298]
 [0.37100375 0.03801843 0.79835309]
 [0.37290758 0.03721729 0.80552308]
 [0.3682011  0.03570748 0.79992558]
 [0.35768993 0.03362076 0.78258343]
 [0.34250803 0.03111661 0.75504007]
 [0.32397334 0.02836427 0.71920111]
 [0.30344608 0.02552665 0.67717017]
 [0.28220485 0.02274738 0.63109225]
 [0.26135965 0.02014242 0.58301662]
 [0.24179672 0.01779627 0.53478627]
 [0.22416294 0.01576243 0.48795573]
 [0.2088743  0.01406698 0.44374147]
 [0.19614247 0.01271359 0.40300572]
 [0.18600936 0.01168871 0.36625816]
 [0.17837843 0.01096769 0.33369972]
 [0.17304463 0.0105187  0.30527365]
 [0.16972031 0.01030643 0.28072212]
 [0.16805915 0.01029431 0.25967584]
 [0.16767532 0.01044544 0.24171835]
 [0.16817292 0.01072357 0.22643848]
 [0.16916622 0.01109268 0.21347441]
 [0.17031201 0.01151727 0.20253451]
 [0.17132604 0.01196241 0.19340023]
 [0.17201063 0.01239394 0.18591118]
 [0.17225539 0.01278016 0.1799451 ]
 [0.17204287 0.01309244 0.17538989]
 [0.17143189 0.01330797 0.17212473]
 [0.17053764 0.01341098 0.17000931]
 [0.16950211 0.01339421 0.16887858]
 [0.16846284 0.0132596  0.16854921]
 [0.16752475 0.01301748 0.16882836]
 [0.16673579 0.0126854  0.16952735]
 [0.16607886 0.01228619 0.17047435]
 [0.16546886 0.01184478 0.17152161]
 [0.16477484 0.01138657 0.1725525 ]
 [0.16384541 0.01093456 0.1734778 ]
 [0.16254315 0.01050816 0.17423669]
 [0.16077702 0.01012237 0.17478791]
 [0.1585254  0.00978708 0.17510479]
 [0.1558491  0.00950773 0.1751693 ]
 [0.15288105 0.00928623 0.17496889]
 [0.14980891 0.00912124 0.17449145]
 [0.14684336 0.00900994 0.17372814]
 [0.1441912  0.00894888 0.17267402]
 [0.14202698 0.00893516 0.17132855]
 [0.14047727 0.00896662 0.16970131]
 [0.13961305 0.00904228 0.16781386]
 [0.13945243 0.00916131 0.16570264]
 [0.13996511 0.00932225 0.16342033]
 [0.14107745 0.00952157 0.16103199]
 [0.1426853  0.00975243 0.15861558]
 [0.14465776 0.01000329 0.15625668]
 [0.14685113 0.01025825 0.15404043]
 [0.14912002 0.01049747 0.15204401]
 [0.15133191 0.01069943 0.15033274]
 [0.15338719 0.01084262 0.14895055]
 [0.15522986 0.0109086  0.14791916]
 [0.15685297 0.01088456 0.14724034]
 [0.15829657 0.01076486 0.14690126]
 [0.15963745 0.01055218 0.1468846 ]
 [0.1609622  0.01025666 0.1471792 ]
 [0.16234567 0.00989482 0.14779524]
 [0.16382453 0.00948722 0.14877783]
 [0.16537959 0.009056   0.15022156]
 [0.16692299 0.00862256 0.15228434]
 [0.16830482 0.0082056  0.15519525]
 [0.16932471 0.00781978 0.15926469]
 [0.16976189 0.00747506 0.16487733]
 [0.16940729 0.00717645 0.17247554]
 [0.16809922 0.00692436 0.1825295 ]
 [0.16575168 0.00671497 0.1954836 ]
 [0.16237477 0.0065412  0.21169102]
 [0.15807732 0.00639378 0.23133721]
 [0.15305294 0.00626272 0.25436521]
 [0.14756088 0.00613914 0.28041526]
 [0.14188968 0.00601622 0.30878912]
 [0.13632671 0.00589064 0.3384571 ]
 [0.13113363 0.00576308 0.36810087]
 [0.12652788 0.00563782 0.39620192]
 [0.12267732 0.00552242 0.42116793]
 [0.11970228 0.00542532 0.44147593]
 [0.11768095 0.0053549  0.45581929]
 [0.11665937 0.0053179  0.46324399]]","[[0.02687234 0.00399699 0.01244118]
 [0.02710534 0.00401699 0.01330099]
 [0.02762062 0.00406644 0.01517431]
 [0.02852029 0.00416408 0.01835909]
 [0.02996216 0.00433765 0.02332927]
 [0.03216627 0.00462381 0.03072526]
 [0.03540743 0.00506724 0.04134359]
 [0.04001165 0.00571907 0.05610752]
 [0.04633908 0.00663439 0.07601007]
 [0.05476091 0.00786814 0.10202194]
 [0.06561897 0.00946772 0.13497333]
 [0.07918652 0.01146545 0.17542302]
 [0.09561742 0.01386886 0.22352914]
 [0.11489764 0.01665077 0.27894383]
 [0.13680159 0.01974294 0.34075715]
 [0.16086321 0.02303349 0.40749963]
 [0.18636841 0.02637102 0.4772125 ]
 [0.21237072 0.02957557 0.54757634]
 [0.23774353 0.03245582 0.61608392]
 [0.26126338 0.03483096 0.68023202]
 [0.2817152  0.03655198 0.73770344]
 [0.29801239 0.0375204  0.78651786]
 [0.30931733 0.0377002  0.82513567]
 [0.31513314 0.03712098 0.85251441]
 [0.31536387 0.03587221 0.86811882]
 [0.31032256 0.03409028 0.87189798]
 [0.30069073 0.03194052 0.8642463 ]
 [0.28743432 0.02959716 0.84595671]
 [0.27169046 0.02722504 0.81816975]
 [0.25464872 0.02496489 0.78231795]
 [0.23743154 0.02292305 0.74005825]
 [0.22100231 0.02116776 0.6931937 ]
 [0.20609934 0.0197282  0.64357499]
 [0.19320689 0.01859938 0.59299825]
 [0.18255299 0.0177488  0.54310171]
 [0.17413705 0.01712455 0.49527394]
 [0.16777289 0.01666437 0.45059496]
 [0.16314931 0.0163044  0.40980467]
 [0.15989152 0.0159864  0.37330772]
 [0.15761745 0.01566381 0.34120623]
 [0.15599312 0.01530509 0.31334917]
 [0.15476526 0.01489517 0.28942427]
 [0.15377827 0.01443407 0.26900779]
 [0.15296706 0.01393387 0.25163509]
 [0.15233532 0.01341424 0.23685392]
 [0.15192269 0.01289728 0.22425656]
 [0.15176776 0.01240321 0.21349622]
 [0.15188478 0.01194681 0.20428832]
 [0.15224072 0.01153571 0.19639792]
 [0.15275614 0.01117042 0.1896245 ]
 [0.15331484 0.01084614 0.1837882 ]
 [0.15378643 0.01055581 0.17871775]
 [0.15404528 0.01029242 0.17425333]
 [0.1539956  0.01005194 0.17025441]
 [0.15358179 0.00983454 0.16661274]
 [0.15279651 0.00964447 0.16326287]
 [0.15167517 0.00948901 0.16019201]
 [0.15028496 0.00937606 0.15743619]
 [0.14871219 0.00931171 0.15506865]
 [0.1470452  0.00929777 0.15317944]
 [0.14535968 0.00932973 0.15184977]
 [0.14371178 0.00939707 0.1511312 ]
 [0.14213362 0.00948341 0.151031  ]
 [0.14063237 0.00956856 0.15150829]
 [0.13919774 0.00963151 0.15247934]
 [0.13780709 0.00965369 0.15383561]
 [0.13643601 0.0096218  0.15546788]
 [0.13506203 0.0095304  0.15729283]
 [0.13367118 0.00938297 0.15927738]
 [0.13225907 0.00919131 0.16146197]
 [0.13082579 0.00897361 0.16397973]
 [0.12937642 0.00875121 0.16706841]
 [0.12790962 0.00854494 0.17107838]
 [0.12641262 0.00837277 0.17647124]
 [0.12485318 0.00824572 0.18380329]
 [0.12317805 0.00816723 0.19369455]
 [0.12131176 0.00813598 0.20677315]
 [0.11916755 0.00815252 0.22359947]
 [0.11665516 0.00822471 0.24457953]
 [0.11369905 0.00837616 0.26986805]
 [0.11025434 0.00865402 0.29929181]
 [0.10631827 0.00913639 0.33230231]
 [0.10193902 0.00993523 0.36797043]
 [0.09721575 0.01119415 0.40504355]
 [0.09229174 0.01307795 0.44205069]
 [0.08733977 0.0157512  0.47744821]
 [0.0825428  0.01935104 0.50978519]
 [0.07807373 0.02395623 0.53785442]
 [0.07407198 0.02955725 0.56081152]
 [0.07063075 0.03603444 0.57824523]
 [0.06778774 0.04315395 0.59018449]
 [0.06552527 0.05058684 0.59705686]
 [0.06378173 0.05794915 0.59960361]
 [0.06246793 0.06485685 0.59877151]
 [0.06148526 0.07098243 0.59560324]
 [0.06074904 0.07609901 0.59113636]
 [0.06019616 0.08009967 0.58632372]
 [0.05979013 0.08298585 0.58197405]
 [0.05951837 0.08482957 0.57871695]
 [0.05938115 0.08572139 0.57698061]]","[[0.01817194 0.00518921 0.0087244 ]
 [0.01815197 0.00513252 0.00865527]
 [0.01811377 0.00502583 0.00852924]
 [0.01806069 0.0048816  0.00836814]
 [0.01799695 0.004716   0.00819954]
 [0.01792757 0.00454683 0.0080515 ]
 [0.01785715 0.00439072 0.00794753]
 [0.01779004 0.00426131 0.00790523]
 [0.01772995 0.00416685 0.00793202]
 [0.01768001 0.00410963 0.00802912]
 [0.01764293 0.00408635 0.00819722]
 [0.01762073 0.00408891 0.00843641]
 [0.0176185  0.00410692 0.00875344]
 [0.01764828 0.00412979 0.00919595]
 [0.01773051 0.00415031 0.00983729]
 [0.01790064 0.00416755 0.01081991]
 [0.01821754 0.00418958 0.01237569]
 [0.01877465 0.0042354  0.01485567]
 [0.01970989 0.00433563 0.01875833]
 [0.0212217  0.0045314  0.02475139]
 [0.02357905 0.00487222 0.03367846]
 [0.02712854 0.00541174 0.04654007]
 [0.03229671 0.00620253 0.0644424 ]
 [0.03957918 0.00728991 0.08850826]
 [0.04951591 0.008705   0.11975177]
 [0.06264855 0.01045856 0.1589299 ]
 [0.07945848 0.01253608 0.20638897]
 [0.10028792 0.01489377 0.26193369]
 [0.12525374 0.01745879 0.32474636]
 [0.15416228 0.02013099 0.39338051]
 [0.18644484 0.02278888 0.46584268]
 [0.22113254 0.02529886 0.5397538 ]
 [0.25688169 0.0275265  0.61257205]
 [0.29206213 0.02935028 0.68183701]
 [0.32490011 0.03067364 0.74540068]
 [0.35366329 0.03143599 0.80159867]
 [0.37685475 0.03161913 0.84933825]
 [0.39338432 0.03124841 0.88809618]
 [0.40268924 0.03038929 0.91782669]
 [0.40478103 0.02913788 0.93881891]
 [0.40021413 0.02760894 0.95153064]
 [0.38998525 0.02592247 0.9564385 ]
 [0.37538495 0.02419058 0.95392952]
 [0.35782912 0.02250759 0.94426059]
 [0.33869812 0.02094322 0.92758179]
 [0.31920888 0.01954027 0.90401175]
 [0.30032816 0.01831642 0.87374364]
 [0.28273419 0.01726827 0.83715502]
 [0.26682402 0.01637798 0.79488912]
 [0.25275427 0.01562048 0.74789556]
 [0.24050616 0.01496934 0.69740677]
 [0.22995479 0.01440233 0.64486715]
 [0.2209359  0.0139038  0.59182602]
 [0.21329738 0.01346697 0.53980577]
 [0.20692461 0.0130928  0.49016127]
 [0.20175122 0.01278745 0.44401192]
 [0.19774172 0.01255952 0.40215044]
 [0.19486547 0.01241582 0.36503391]
 [0.19306699 0.01235876 0.33280557]
 [0.19224911 0.01238368 0.30533815]
 [0.19226282 0.01247864 0.28230386]
 [0.19292078 0.01262526 0.2632432 ]
 [0.19401333 0.01280094 0.2476303 ]
 [0.19533406 0.01298332 0.23493069]
 [0.19670225 0.01315305 0.22464198]
 [0.19797189 0.01329746 0.21632292]
 [0.19903372 0.01341132 0.20960658]
 [0.19980525 0.01349605 0.20420553]
 [0.2002203  0.0135581  0.19990754]
 [0.20021912 0.01360543 0.1965653 ]
 [0.19975246 0.01364469 0.19408112]
 [0.19879202 0.01367908 0.19238614]
 [0.1973476  0.0137074  0.19141941]
 [0.19548263 0.01372492 0.19110825]
 [0.19332529 0.01372484 0.19135155]
 [0.19105754 0.01370036 0.19200635]
 [0.18889291 0.01364709 0.19289107]
 [0.18704107 0.01356395 0.19379216]
 [0.18566772 0.01345425 0.19448723]
 [0.18485968 0.01332489 0.19477878]
 [0.18460285 0.01318603 0.19452377]
 [0.18478269 0.01304987 0.19366821]
 [0.18520563 0.01292874 0.19227195]
 [0.18563629 0.01283433 0.1905206 ]
 [0.18584501 0.01277585 0.18871333]
 [0.18565237 0.01275933 0.18724204]
 [0.18496065 0.01278644 0.18655084]
 [0.18377366 0.01285436 0.18708935]
 [0.18218778 0.01295609 0.18926046]
 [0.18037168 0.01308122 0.19336931]
 [0.17853015 0.01321737 0.19957744]
 [0.1768637  0.01335222 0.20786686]
 [0.17553322 0.01347503 0.21801243]
 [0.17463368 0.01357827 0.22957353]
 [0.17418045 0.0136578  0.24190668]
 [0.17411735 0.01371356 0.25420613]
 [0.17432882 0.01374879 0.26556937]
 [0.17467026 0.01376815 0.27508732]
 [0.17499642 0.01377733 0.28195   ]
 [0.17519118 0.01378066 0.28554478]]","[[0.03033542 0.0050734  0.02852735]
 [0.03051062 0.00506319 0.02884215]
 [0.03088613 0.00504679 0.02955361]
 [0.03151211 0.00503266 0.03083513]
 [0.03246671 0.00503403 0.03295464]
 [0.03386079 0.00507031 0.03629471]
 [0.03584463 0.00516789 0.04136404]
 [0.03861821 0.00536144 0.04880699]
 [0.04243899 0.00569555 0.05939898]
 [0.04762896 0.00622414 0.07402696]
 [0.05457676 0.0070087  0.09364382]
 [0.06372929 0.00811402 0.1191922 ]
 [0.07556602 0.00959983 0.15150124]
 [0.09055704 0.01151107 0.19116178]
 [0.10910158 0.01386578 0.23839759]
 [0.13145096 0.01664449 0.29295455]
 [0.15762616 0.01978224 0.35403146]
 [0.18734327 0.02316669 0.42027404]
 [0.21996422 0.02664354 0.48984514]
 [0.25449065 0.03002963 0.56056666]
 [0.28961025 0.03313219 0.63011951]
 [0.32379937 0.03577068 0.69626974]
 [0.35547091 0.037799   0.75708377]
 [0.383147   0.039122   0.81109943]
 [0.40562178 0.03970468 0.85742052]
 [0.42209419 0.03957317 0.89573557]
 [0.43224158 0.03880646 0.92625042]
 [0.4362189  0.03752291 0.94956637]
 [0.43459644 0.03586285 0.96652216]
 [0.42824441 0.0339711  0.97803765]
 [0.41819317 0.03198218 0.98497378]
 [0.40549646 0.03000879 0.98802974]
 [0.39111744 0.02813562 0.98768904]
 [0.37585498 0.02641741 0.98420456]
 [0.36031249 0.02488059 0.97762308]
 [0.3449056  0.02352828 0.96783589]
 [0.32989549 0.0223465  0.95464542]
 [0.31543854 0.02131131 0.93783479]
 [0.30163135 0.02039522 0.9172325 ]
 [0.28854611 0.01957178 0.89276342]
 [0.27625467 0.01882015 0.86449149]
 [0.26482541 0.0181253  0.83262823]
 [0.25432141 0.0174784  0.79752507]
 [0.24477948 0.01687458 0.75968393]
 [0.23619889 0.0163107  0.71970827]
 [0.22852858 0.01578301 0.67828606]
 [0.22167174 0.01528528 0.63615757]
 [0.21549688 0.0148091  0.59408081]
 [0.20985765 0.01434426 0.55280333]
 [0.2046159  0.01388056 0.51302284]
 [0.19966217 0.01341036 0.47535679]
 [0.1949283  0.0129297  0.44031097]
 [0.19039332 0.01244002 0.40825509]
 [0.18608021 0.01194759 0.37940774]
 [0.18204328 0.01146224 0.3538353 ]
 [0.17835315 0.01099583 0.33146467]
 [0.17507835 0.01055899 0.31210395]
 [0.17227553 0.01016124 0.29547633]
 [0.16997585 0.00980912 0.28125219]
 [0.16818339 0.00950714 0.26908586]
 [0.16687341 0.00925839 0.25864249]
 [0.16599857 0.00906543 0.24962093]
 [0.1654978  0.00893145 0.24176665]
 [0.16530214 0.00885897 0.23488309]
 [0.16534009 0.00884946 0.22883495]
 [0.16554871 0.00890218 0.2235519 ]
 [0.1658737  0.00901174 0.21901976]
 [0.16626868 0.0091684  0.21528066]
 [0.16670175 0.00935758 0.2124199 ]
 [0.16714887 0.00956098 0.2105538 ]
 [0.16759963 0.00975939 0.20981439]
 [0.16805256 0.00993475 0.21033528]
 [0.16851675 0.01007341 0.21223801]
 [0.16901172 0.01016832 0.21561927]
 [0.16955979 0.01022026 0.22054342]
 [0.17018244 0.01023841 0.22703386]
 [0.1708876  0.0102383  0.23507293]
 [0.1716607  0.01023967 0.24460346]
 [0.17245075 0.01026263 0.2555403 ]
 [0.17316526 0.01032424 0.26779202]
 [0.17366874 0.01043453 0.28128907]
 [0.17378597 0.01059398 0.29601594]
 [0.17332015 0.01079416 0.31204806]
 [0.172071   0.01101774 0.32957546]
 [0.16986416 0.01124189 0.34890794]
 [0.16657126 0.01144183 0.37045371]
 [0.16213161 0.01159535 0.39466581]
 [0.15656013 0.01168685 0.42196357]
 [0.14995188 0.01170913 0.45263493]
 [0.14247073 0.01166528 0.48672986]
 [0.13433637 0.01156724 0.52398251]
 [0.12581124 0.01143371 0.5637564 ]
 [0.11718073 0.0112864  0.60503684]
 [0.10874299 0.01114561 0.64647454]
 [0.10079572 0.0110273  0.68647321]
 [0.0936295  0.01093991 0.72330729]
 [0.0875156  0.01088422 0.75526242]
 [0.08269431 0.01085511 0.78077495]
 [0.07936093 0.01084325 0.79855382]
 [0.07765776 0.01084005 0.80768151]]","[[0.34827128 0.01520611 0.90232782]
 [0.34718493 0.01524553 0.90042035]
 [0.34498429 0.01531861 0.89657836]
 [0.34162395 0.01541456 0.89075759]
 [0.33706328 0.01551866 0.882905  ]
 [0.3312849  0.01561442 0.87297111]
 [0.32431542 0.01568578 0.86091504]
 [0.31623865 0.01571889 0.84671235]
 [0.30719398 0.015705   0.83035284]
 [0.29737017 0.01564167 0.8118508 ]
 [0.28698613 0.01553406 0.79125237]
 [0.27627498 0.01539521 0.76866048]
 [0.2654618  0.01524494 0.74424304]
 [0.25475122 0.015108   0.71825257]
 [0.24431293 0.01501105 0.69102239]
 [0.23427801 0.01497933 0.66295382]
 [0.22473795 0.01503244 0.63448879]
 [0.21574959 0.01518114 0.6060701 ]
 [0.20733784 0.01542465 0.57810568]
 [0.19950432 0.01574969 0.55093784]
 [0.19223011 0.01613067 0.52482065]
 [0.18548456 0.01653207 0.49991563]
 [0.17923619 0.01691205 0.47630426]
 [0.17346114 0.01722775 0.45400933]
 [0.16815258 0.01744029 0.43301806]
 [0.16332845 0.01752014 0.41330775]
 [0.15903875 0.01745111 0.39487139]
 [0.15536124 0.01723205 0.37773674]
 [0.15239161 0.01687697 0.36197347]
 [0.15023034 0.01641281 0.3476922 ]
 [0.1489628  0.01587536 0.33502814]
 [0.14863957 0.01530514 0.32411076]
 [0.14926937 0.0147422  0.31502667]
 [0.15080876 0.01422235 0.30777591]
 [0.15316987 0.01377426 0.30224204]
 [0.15622175 0.01341748 0.29817064]
 [0.15980328 0.01316189 0.29517825]
 [0.16372684 0.01300739 0.29278095]
 [0.1677899  0.01294558 0.29045101]
 [0.17177958 0.01296068 0.28768207]
 [0.17548211 0.01303186 0.2840548 ]
 [0.17869604 0.01313527 0.27928753]
 [0.1812469  0.01324649 0.27326606]
 [0.18301016 0.01334333 0.26604428]
 [0.18391828 0.01340765 0.25781761]
 [0.18397425 0.01342721 0.24888332]
 [0.18324702 0.01339641 0.23958826]
 [0.18186207 0.01331614 0.23028467]
 [0.17998351 0.01319408 0.22128881]
 [0.17779551 0.01304217 0.21286227]
 [0.17548726 0.01287602 0.20519538]
 [0.17324126 0.0127128  0.19841235]
 [0.17122769 0.01256972 0.19257221]
 [0.16959843 0.01246243 0.18768019]
 [0.16847812 0.01240333 0.18369191]
 [0.16795641 0.01240036 0.18052188]
 [0.16806987 0.01245572 0.17804874]
 [0.16879213 0.01256513 0.17612116]
 [0.17002577 0.0127175  0.17457079]
 [0.17160554 0.01289574 0.17323151]
 [0.17331635 0.0130781  0.17196787]
 [0.17492012 0.0132409  0.17070888]
 [0.17618525 0.01336083 0.16948287]
 [0.1769141  0.0134185  0.1684512 ]
 [0.17696354 0.01340121 0.16793055]
 [0.17625024 0.01330366 0.16840753]
 [0.17474145 0.01312725 0.17053344]
 [0.17243686 0.01288167 0.17510076]
 [0.16935061 0.01258397 0.18299661]
 [0.16549318 0.01225704 0.19513387]
 [0.16086204 0.01193003 0.21235637]
 [0.1554431  0.01163947 0.23532643]
 [0.14922357 0.01142993 0.26439847]
 [0.14220469 0.01135539 0.2995004 ]
 [0.13442322 0.01147848 0.34003818]
 [0.1259612  0.01186689 0.38485374]
 [0.11695439 0.01258628 0.43224797]
 [0.10758667 0.01368953 0.48007655]
 [0.09808092 0.01520393 0.52591802]
 [0.0886767  0.01711748 0.56728876]
 [0.07961068 0.01936986 0.60187574]
 [0.07109423 0.02184952 0.62775567]
 [0.06329733 0.02439959 0.64356819]
 [0.05633973 0.02683421 0.6486205 ]
 [0.05028485 0.02896112 0.64292073]
 [0.04515282 0.03060861 0.62713901]
 [0.04092128 0.03164945 0.60251287]
 [0.03754395 0.0320183  0.57071481]
 [0.03495537 0.031718   0.5336956 ]
 [0.03308087 0.03081469 0.49352403]
 [0.03184045 0.02942425 0.45223215]
 [0.03114765 0.02769268 0.41168246]
 [0.03091023 0.02577544 0.37346075]
 [0.03102909 0.02382065 0.33880888]
 [0.03140019 0.02195648 0.30860025]
 [0.03191777 0.02028359 0.28335368]
 [0.03247893 0.01887645 0.26329104]
 [0.03299111 0.01778632 0.24841724]
 [0.03337826 0.01704516 0.23862139]
 [0.03358542 0.01667065 0.2337677 ]]","[[0.01888345 0.00274006 0.02702332]
 [0.01916701 0.00281393 0.02810843]
 [0.0198213  0.00297643 0.03043159]
 [0.02102336 0.00325662 0.0343021 ]
 [0.02304782 0.00369701 0.04018708]
 [0.02626846 0.00434951 0.04873127]
 [0.03115967 0.00527277 0.060737  ]
 [0.03828379 0.0065259  0.07712375]
 [0.04825864 0.00816043 0.09887301]
 [0.06170906 0.01021175 0.12692477]
 [0.07919794 0.01268938 0.16205821]
 [0.10113988 0.01556888 0.20475479]
 [0.12771075 0.01878686 0.25506909]
 [0.15876097 0.02224011 0.31253255]
 [0.1937565  0.02579139 0.37611032]
 [0.23175543 0.02928043 0.44422897]
 [0.27143672 0.03253972 0.51488005]
 [0.31118661 0.0354124  0.58578994]
 [0.34923026 0.03776929 0.65463485]
 [0.38379624 0.03952185 0.71926576]
 [0.41328862 0.04062914 0.77790976]
 [0.43644555 0.04109878 0.82931698]
 [0.45244938 0.04098052 0.87282767]
 [0.46098733 0.0403555  0.90835607]
 [0.46224777 0.0393237  0.93630588]
 [0.45686186 0.0379905  0.95742787]
 [0.44580683 0.03645629 0.97265868]
 [0.43028154 0.03480856 0.98296274]
 [0.4115823  0.0331181  0.98919427]
 [0.39098818 0.03143788 0.99199823]
 [0.36967062 0.0298049  0.9917506 ]
 [0.3486247  0.02824269 0.98854067]
 [0.32863613 0.0267648  0.98218666]
 [0.31026565 0.02537829 0.97228527]
 [0.293857   0.02408637 0.95828731]
 [0.27955635 0.02289055 0.93959578]
 [0.26734682 0.02179238 0.9156691 ]
 [0.2570758  0.020793   0.8861388 ]
 [0.24849958 0.01989252 0.85089678]
 [0.24132145 0.01909035 0.81016317]
 [0.23522741 0.01838186 0.7645341 ]
 [0.22991649 0.01775866 0.71495384]
 [0.22512845 0.01720824 0.66265968]
 [0.22066067 0.01671382 0.6090893 ]
 [0.21637691 0.01625653 0.55576347]
 [0.21221208 0.01581745 0.50416612]
 [0.20816706 0.01538078 0.45562931]
 [0.20429728 0.01493585 0.41124965]
 [0.20069756 0.01447918 0.37183641]
 [0.19748745 0.0140152  0.33789628]
 [0.19479148 0.01355455 0.30965372]
 [0.19271734 0.01311191 0.28709377]
 [0.1913363  0.01270221 0.27002366]
 [0.19066232 0.01233732 0.25813111]
 [0.1906429  0.01202289 0.25103801]
 [0.19115645 0.01175689 0.2483347 ]
 [0.19202102 0.01153    0.24959627]
 [0.19301988 0.01132728 0.25437785]
 [0.19392688 0.01113177 0.2622021 ]
 [0.19454224 0.01092829 0.27253823]
 [0.19471654 0.01070647 0.28479035]
 [0.1943715  0.01046289 0.29829804]
 [0.19350253 0.01020199 0.31235259]
 [0.19217817 0.00993458 0.32622928]
 [0.19051817 0.0096759  0.33923739]
 [0.18867955 0.00944275 0.35076794]
 [0.1868325  0.00925051 0.36034424]
 [0.18514615 0.00911146 0.36765666]
 [0.18377897 0.00903334 0.37258107]
 [0.18287009 0.00901896 0.37518638]
 [0.18254089 0.00906702 0.37572148]
 [0.18289174 0.0091727  0.37459122]
 [0.18399416 0.0093286  0.37232479]
 [0.18588164 0.00952513 0.36954035]
 [0.18853383 0.00975049 0.36689904]
 [0.1918586  0.00999052 0.36506653]
 [0.19568436 0.01022869 0.36466759]
 [0.19974994 0.01044601 0.36624876]
 [0.20372632 0.01062301 0.37024696]
 [0.20723787 0.01074113 0.3769728 ]
 [0.20990849 0.01078479 0.38660782]
 [0.21141238 0.01074471 0.39921706]
 [0.21152277 0.01061922 0.41477458]
 [0.21014405 0.01041544 0.43318714]
 [0.2073256  0.01014848 0.45431706]
 [0.20325512 0.00983962 0.47798567]
 [0.1982183  0.0095131  0.50396408]
 [0.19255558 0.00919271 0.5319504 ]
 [0.18661022 0.0088987  0.56154446]
 [0.18067938 0.00864509 0.59222822]
 [0.17498825 0.0084389  0.62336398]
 [0.16967868 0.00828046 0.65421502]
 [0.16481764 0.00816468 0.68398729]
 [0.16042516 0.0080833  0.71187875]
 [0.15650728 0.00802736 0.73713911]
 [0.15308026 0.00798882 0.75911121]
 [0.15018945 0.00796179 0.77726127]
 [0.14790774 0.00794274 0.79118714]
 [0.14632068 0.00793012 0.80061041]
 [0.14550483 0.00792377 0.80536113]]","[[0.02331429 0.05267825 0.02704659]
 [0.02341338 0.0516876  0.02717066]
 [0.02363754 0.04980212 0.02746646]
 [0.02403924 0.04719725 0.02803856]
 [0.02469761 0.04409949 0.02905675]
 [0.02572271 0.04075298 0.03079447]
 [0.02725944 0.03738808 0.03365168]
 [0.02949835 0.03419779 0.03818031]
 [0.0326857  0.03132656 0.04509869]
 [0.0371344  0.02886872 0.05528407]
 [0.04323123 0.02687687 0.0697363 ]
 [0.05143084 0.02537304 0.0895084 ]
 [0.06223844 0.02435965 0.11559614]
 [0.07616676 0.02382727 0.14880205]
 [0.09367467 0.02375676 0.18959148]
 [0.1150834  0.02411724 0.23795776]
 [0.14048308 0.02486226 0.29332737]
 [0.16964469 0.02592467 0.35452338]
 [0.20195703 0.02721569 0.4197997 ]
 [0.23640189 0.02862557 0.48693845]
 [0.27159173 0.03003142 0.5534114 ]
 [0.30586392 0.03130795 0.61656673]
 [0.33743399 0.03233868 0.67383412]
 [0.36457928 0.03302775 0.72291673]
 [0.38583359 0.0333112  0.76195003]
 [0.40015259 0.03316371 0.78962542]
 [0.407022   0.03259787 0.80526318]
 [0.40649984 0.03166107 0.80883528]
 [0.39917759 0.0304265  0.80094281]
 [0.38607825 0.02898233 0.78274232]
 [0.36851104 0.02742013 0.75583478]
 [0.34791056 0.02582363 0.72212057]
 [0.325687   0.02426135 0.68363782]
 [0.30310725 0.02278209 0.64239538]
 [0.28121421 0.02141383 0.60021989]
 [0.2607917  0.02016708 0.5586373 ]
 [0.24236434 0.01903902 0.51879248]
 [0.2262225  0.01801917 0.48142527]
 [0.21246006 0.01709468 0.4468932 ]
 [0.20101757 0.01625369 0.41524167]
 [0.1917248  0.01548752 0.38630145]
 [0.18433599 0.0147902  0.3597992 ]
 [0.17856487 0.01415818 0.33545236]
 [0.17411351 0.01358927 0.31302949]
 [0.17070135 0.01308166 0.29239591]
 [0.16809113 0.01263412 0.27352131]
 [0.16610506 0.01224634 0.2564334 ]
 [0.16463952 0.0119197  0.24118004]
 [0.16365836 0.0116577  0.22778424]
 [0.1631832  0.01146508 0.21621008]
 [0.16326557 0.01134743 0.20634718]
 [0.16395621 0.01130876 0.19801602]
 [0.1652746  0.01134995 0.19098687]
 [0.16718516 0.01146763 0.1850143 ]
 [0.16959166 0.01165281 0.17986789]
 [0.17233976 0.01189158 0.17535855]
 [0.1752381  0.01216628 0.17135151]
 [0.17808252 0.01245668 0.16776875]
 [0.18067846 0.0127422  0.16458025]
 [0.18285866 0.01300252 0.16178636]
 [0.18449394 0.01322086 0.159405  ]
 [0.18548987 0.01338366 0.15745028]
 [0.18578026 0.01348241 0.1559262 ]
 [0.18532302 0.01351451 0.1548165 ]
 [0.18409844 0.01348288 0.15408357]
 [0.18211184 0.01339631 0.15367626]
 [0.17940422 0.01326773 0.15352937]
 [0.17606663 0.01311302 0.15357445]
 [0.17224105 0.01294863 0.15374617]
 [0.16812138 0.01278924 0.15398397]
 [0.16394206 0.01264553 0.1542406 ]
 [0.15995472 0.01252307 0.15448306]
 [0.15639982 0.01242136 0.15469558]
 [0.15347603 0.01233492 0.1548799 ]
 [0.15131612 0.0122545  0.15505629]
 [0.14997569 0.01216958 0.15525789]
 [0.14942847 0.01207046 0.15552765]
 [0.14958023 0.01195077 0.15591453]
 [0.15029146 0.01180914 0.15646322]
 [0.15140859 0.01164907 0.15721313]
 [0.15279151 0.01147972 0.15818845]
 [0.15433524 0.01131416 0.1593965 ]
 [0.15598187 0.01116745 0.16082737]
 [0.15771638 0.01105504 0.16245216]
 [0.15955221 0.01099034 0.16422642]
 [0.1615042  0.01098365 0.16609304]
 [0.16356484 0.01104011 0.1679819 ]
 [0.16568652 0.01115969 0.16981781]
 [0.16777153 0.0113373  0.17152462]
 [0.16968185 0.01156276 0.17302926]
 [0.17125558 0.01182274 0.17426993]
 [0.17234127 0.0121014  0.17520451]
 [0.17282834 0.01238252 0.1758152 ]
 [0.17267872 0.0126513  0.17611521]
 [0.17194547 0.0128949  0.17614737]
 [0.17077067 0.01310437 0.17597828]
 [0.16937164 0.01327413 0.1756919 ]
 [0.1680049  0.01340129 0.1753773 ]
 [0.16692319 0.01348555 0.17511524]
 [0.16632656 0.01352732 0.17496745]]","[[0.02841726 0.00430445 0.01400798]
 [0.02832094 0.00424795 0.01401962]
 [0.0281338  0.00414033 0.01405577]
 [0.02786789 0.00399337 0.01413957]
 [0.0275448  0.00382494 0.01430857]
 [0.02719421 0.0036607  0.01462146]
 [0.02685944 0.00353558 0.0151788 ]
 [0.02660044 0.00349542 0.01614044]
 [0.02650594 0.00359747 0.01775083]
 [0.02670248 0.00391027 0.02036071]
 [0.02736246 0.00451089 0.02445339]
 [0.02871847 0.00547935 0.03065678]
 [0.03107185 0.00689095 0.03974066]
 [0.03479488 0.00880576 0.05258323]
 [0.04032465 0.01125758 0.07010299]
 [0.04813935 0.01424319 0.09315173]
 [0.05872126 0.01771543 0.12238742]
 [0.07249265 0.02157978 0.15813735]
 [0.08974755 0.0256973  0.20028752]
 [0.11057304 0.02989368 0.24822585]
 [0.13477972 0.03397297 0.3008605 ]
 [0.16185252 0.03773534 0.35672219]
 [0.19094009 0.04099568 0.41412645]
 [0.22089183 0.04360101 0.47136891]
 [0.25034273 0.04544385 0.52689747]
 [0.27784045 0.04646983 0.57942604]
 [0.30199953 0.04667974 0.62796654]
 [0.32165249 0.04612433 0.67178494]
 [0.33597943 0.04489506 0.71030687]
 [0.34459188 0.04311149 0.74302421]
 [0.34755608 0.04090712 0.76943367]
 [0.34535155 0.03841722 0.78904144]
 [0.33878282 0.03576856 0.80142609]
 [0.32885233 0.03307249 0.80633538]
 [0.31663001 0.03042225 0.80378454]
 [0.30313561 0.02789217 0.79412278]
 [0.28925361 0.02553973 0.77804043]
 [0.27569216 0.02340798 0.75651569]
 [0.26297372 0.02152765 0.73071597]
 [0.25145951 0.01991869 0.70187166]
 [0.24137931 0.01859085 0.67115645]
 [0.2328637  0.0175428  0.63959216]
 [0.22596455 0.01676183 0.60798981]
 [0.22066269 0.01622418 0.57692582]
 [0.21686661 0.01589544 0.54676261]
 [0.21441087 0.01573357 0.51768409]
 [0.21306475 0.01569257 0.4897397 ]
 [0.21254584 0.01572625 0.46289211]
 [0.21254954 0.01579295 0.43706648]
 [0.21277877 0.01585932 0.41218744]
 [0.21297976 0.01590282 0.38821102]
 [0.21296865 0.01591242 0.365135  ]
 [0.21263528 0.01588777 0.34300761]
 [0.21194113 0.01583673 0.32192146]
 [0.21090067 0.01577226 0.30200376]
 [0.20955734 0.01570863 0.28339848]
 [0.20796017 0.01565798 0.26625264]
 [0.20614238 0.01562703 0.25069627]
 [0.20411668 0.01561589 0.23683021]
 [0.20186702 0.01561748 0.22471298]
 [0.19935726 0.01561775 0.21435686]
 [0.19654324 0.01559881 0.20572212]
 [0.19338914 0.01554128 0.19871407]
 [0.18987695 0.01542751 0.19318669]
 [0.18602479 0.0152454  0.18894402]
 [0.18189289 0.01498995 0.185749  ]
 [0.17758439 0.01466498 0.18334254]
 [0.17323897 0.01428213 0.18146001]
 [0.16902281 0.01385962 0.17985606]
 [0.16510754 0.01341975 0.17832831]
 [0.16164645 0.01298549 0.176733  ]
 [0.15875665 0.01257831 0.17499779]
 [0.15650472 0.01221611 0.17311703]
 [0.15490277 0.01191216 0.17114571]
 [0.15391457 0.01167502 0.16918482]
 [0.15346308 0.01150792 0.1673617 ]
 [0.15344902 0.01140993 0.16580679]
 [0.15376544 0.01137557 0.16463909]
 [0.15430793 0.01139523 0.16394824]
 [0.1549834  0.01145609 0.16378293]
 [0.15571088 0.01154224 0.16414541]
 [0.1564233  0.01163664 0.16498756]
 [0.15706212 0.0117226  0.16621774]
 [0.15757726 0.0117858  0.16771143]
 [0.15792586 0.01181587 0.16933323]
 [0.15807486 0.01180818 0.17095213]
 [0.15800249 0.01176416 0.17246585]
 [0.15770572 0.01169147 0.17381739]
 [0.15720415 0.01160313 0.17500028]
 [0.15653901 0.01151577 0.17605498]
 [0.15577463 0.01144719 0.1770564 ]
 [0.15498829 0.01141319 0.17808901]
 [0.15426012 0.01142549 0.1792242 ]
 [0.15365938 0.01148842 0.18049693]
 [0.15322845 0.01159772 0.18189191]
 [0.15297661 0.0117406  0.18334385]
 [0.15287934 0.0118972  0.18474337]
 [0.15288803 0.01204411 0.18595801]
 [0.15294026 0.0121579  0.18685676]
 [0.15298184 0.01221991 0.18733469]]","[[0.0562623  0.00733487 0.08360599]
 [0.06032369 0.00744791 0.09157191]
 [0.06859217 0.00768033 0.10738376]
 [0.08131001 0.00804349 0.13076412]
 [0.09873088 0.00854884 0.16122202]
 [0.1210053  0.00920533 0.19799776]
 [0.14806548 0.01001609 0.24003739]
 [0.17953111 0.01097599 0.28601794]
 [0.21464611 0.01207189 0.33442189]
 [0.25227263 0.01328436 0.38365106]
 [0.29095017 0.01459199 0.4321627 ]
 [0.32898758 0.01597622 0.47858382]
 [0.36460653 0.01742593 0.52178465]
 [0.39609696 0.01894101 0.56091166]
 [0.42196673 0.02053207 0.59537922]
 [0.4410672  0.02221685 0.6248274 ]
 [0.45267666 0.02401219 0.64906043]
 [0.45654317 0.02592415 0.66799807]
 [0.45287979 0.02793724 0.68163738]
 [0.44231911 0.03000556 0.69003279]
 [0.42583666 0.03204982 0.69328892]
 [0.40465422 0.03396075 0.69156375]
 [0.38012854 0.03561047 0.68507268]
 [0.35364496 0.0368697  0.67409337]
 [0.3265182  0.03762802 0.65896796]
 [0.29991427 0.03781251 0.64010102]
 [0.27479504 0.03740035 0.6179562 ]
 [0.25188865 0.03642428 0.59304903]
 [0.23168128 0.03496658 0.5659362 ]
 [0.21443215 0.03314679 0.53720058]
 [0.2001937  0.03110324 0.50743856]
 [0.18885026 0.02897398 0.47724434]
 [0.18014538 0.02687983 0.44719389]
 [0.17372399 0.02491275 0.41782422]
 [0.16915749 0.02313076 0.38962346]
 [0.16599059 0.02155875 0.36301927]
 [0.16377748 0.02019389 0.33836344]
 [0.16211381 0.01901449 0.31591487]
 [0.16067205 0.01798839 0.2958299 ]
 [0.15922646 0.01708187 0.27815392]
 [0.15765766 0.01626496 0.26282434]
 [0.1559486  0.01551506 0.24968334]
 [0.15416059 0.0148176  0.23849718]
 [0.15240527 0.01416493 0.22898639]
 [0.15080801 0.01355378 0.22085586]
 [0.14947006 0.01298452 0.21382632]
 [0.14845129 0.01245677 0.20765834]
 [0.14775558 0.01196927 0.20216217]
 [0.14733423 0.01151945 0.19720029]
 [0.1470974  0.01110405 0.19267903]
 [0.14693576 0.01071995 0.18853725]
 [0.14673967 0.01036462 0.18473205]
 [0.14641791 0.01003672 0.18122913]
 [0.14591112 0.00973583 0.17799805]
 [0.14519781 0.00946228 0.17501189]
 [0.14429428 0.00921691 0.17225107]
 [0.14324574 0.00900078 0.16970686]
 [0.14211767 0.00881557 0.16738575]
 [0.14098062 0.0086627  0.16530358]
 [0.13989672 0.00854425 0.1634837 ]
 [0.13891025 0.00846213 0.16194578]
 [0.13804101 0.00841718 0.16069759]
 [0.13728172 0.00840871 0.15972551]
 [0.13660701 0.00843329 0.15898992]
 [0.13598024 0.00848427 0.15842323]
 [0.13536938 0.00855161 0.1579402 ]
 [0.13475879 0.00862277 0.15745032]
 [0.13415489 0.00868408 0.15687622]
 [0.13359445 0.00872178 0.15616954]
 [0.13314415 0.00872435 0.15532749]
 [0.13289146 0.00868326 0.15439914]
 [0.13293929 0.00859426 0.15348006]
 [0.13338775 0.00845751 0.15270419]
 [0.13432743 0.00827732 0.15222148]
 [0.13581714 0.00806188 0.15217225]
 [0.13787717 0.00782203 0.15266926]
 [0.14047741 0.00757097 0.15377976]
 [0.14353053 0.00732312 0.15551331]
 [0.14689323 0.00709314 0.15782103]
 [0.15037809 0.00689581 0.16060007]
 [0.15376615 0.00674469 0.16370622]
 [0.15683571 0.00665225 0.16696922]
 [0.15939066 0.0066291  0.17020975]
 [0.161287   0.00668348 0.17325983]
 [0.16245113 0.00682072 0.17597708]
 [0.16289086 0.00704293 0.17825824]
 [0.16269165 0.00734774 0.1800423 ]
 [0.16199346 0.00772833 0.18130816]
 [0.16097244 0.00817239 0.1820732 ]
 [0.15980568 0.00866306 0.1823813 ]
 [0.15864813 0.00917933 0.18229143]
 [0.15761229 0.00969794 0.18187182]
 [0.1567636  0.01019572 0.18119639]
 [0.15612273 0.01065181 0.18034146]
 [0.15567429 0.01105049 0.17938704]
 [0.155384   0.01138153 0.17841578]
 [0.15521117 0.01164097 0.17751064]
 [0.1551168  0.01182974 0.17674864]
 [0.15507062 0.01195172 0.17619779]
 [0.15505202 0.01201139 0.17590913]]","[[0.08019562 0.00539416 0.03724227]
 [0.08162597 0.00559836 0.04093121]
 [0.08457213 0.0060145  0.04850997]
 [0.08919649 0.00665591 0.06032991]
 [0.09571383 0.00753779 0.0768025 ]
 [0.10435968 0.00867156 0.09828073]
 [0.11535074 0.01005819 0.12493379]
 [0.12883631 0.01168289 0.15664652]
 [0.14484861 0.01350973 0.19296014]
 [0.16326153 0.01548001 0.23306278]
 [0.18375601 0.01751363 0.27583503]
 [0.20580788 0.01951438 0.31994523]
 [0.22869111 0.02137869 0.36396567]
 [0.25150681 0.02300612 0.40648302]
 [0.27323917 0.02431016 0.44618187]
 [0.29283216 0.02522765 0.48189397]
 [0.30927742 0.02572541 0.51262373]
 [0.32171218 0.02580295 0.5375582 ]
 [0.32950719 0.02549033 0.55607722]
 [0.33234097 0.02484371 0.56777778]
 [0.33024199 0.02393795 0.57251154]
 [0.32359226 0.02285736 0.57041992]
 [0.31308821 0.02168717 0.56195543]
 [0.29966548 0.02050531 0.54786772]
 [0.28439176 0.01937637 0.52915537]
 [0.26834703 0.01834774 0.50697766]
 [0.25251218 0.01744806 0.48254684]
 [0.2376801  0.01668817 0.45701885]
 [0.22439785 0.0160631  0.4313984 ]
 [0.21295356 0.01555635 0.40647771]
 [0.20339699 0.01514378 0.38281115]
 [0.1955886  0.01479747 0.36072618]
 [0.18926419 0.01448956 0.34035916]
 [0.18409999 0.01419502 0.32171251]
 [0.17976944 0.01389397 0.30470573]
 [0.17598535 0.01357348 0.28921724]
 [0.17252001 0.01322814 0.2751188 ]
 [0.16921364 0.01286072 0.26229443]
 [0.16596924 0.01248164 0.25064529]
 [0.16274294 0.01210723 0.24007812]
 [0.15953259 0.01175738 0.23049793]
 [0.15636407 0.01145205 0.22179865]
 [0.15328502 0.01120796 0.21386292]
 [0.15035716 0.01103529 0.20656562]
 [0.14765129 0.01093588 0.19978731]
 [0.14524149 0.01090268 0.19342689]
 [0.14319779 0.01092135 0.1874175 ]
 [0.14157397 0.01097276 0.18173563]
 [0.14039785 0.01103596 0.17640341]
 [0.13965829 0.01109208 0.17148364]
 [0.13929783 0.01112672 0.1670694 ]
 [0.13921152 0.01113141 0.16326399]
 [0.13925618 0.0111042  0.16016258]
 [0.13926752 0.01104845 0.15783508]
 [0.13908295 0.01097117 0.15630311]
 [0.13856685 0.01088113 0.15553199]
 [0.13763266 0.0107867  0.15542645]
 [0.13625621 0.01069431 0.15583362]
 [0.13447959 0.01060804 0.15655774]
 [0.13240239 0.01052989 0.15738273]
 [0.13016295 0.01046068 0.1580971 ]
 [0.12791405 0.010401   0.15851727]
 [0.12580173 0.01035303 0.15851173]
 [0.12394668 0.01032058 0.15801085]
 [0.12243108 0.01030868 0.15701546]
 [0.12129748 0.01032201 0.15558719]
 [0.12055508 0.0103625  0.15383951]
 [0.12018144 0.01042778 0.15192142]
 [0.12013466 0.01050909 0.14999882]
 [0.12036306 0.01059248 0.14824505]
 [0.12080809 0.01065999 0.14682181]
 [0.12141269 0.0106931  0.14587509]
 [0.12212541 0.01067688 0.14552305]
 [0.1229053  0.01060279 0.14585586]
 [0.12372636 0.01047125 0.14692929]
 [0.12458216 0.0102918  0.14876977]
 [0.12547957 0.01008125 0.15137606]
 [0.1264329  0.00986133 0.15472836]
 [0.12744593 0.00965249 0.15880217]
 [0.1284967  0.0094731  0.16357838]
 [0.12952211 0.00933851 0.16905604]
 [0.13040966 0.00926111 0.17525839]
 [0.13100334 0.00925224 0.18223392]
 [0.13111837 0.00932566 0.19004689]
 [0.13056709 0.00950445 0.19875684]
 [0.12918844 0.00982434 0.20839449]
 [0.12687468 0.01033554 0.21893371]
 [0.12358571 0.01110167 0.23026429]
 [0.11935683 0.0121944  0.24217733]
 [0.11429046 0.01368375 0.25436487]
 [0.10854496 0.0156235  0.26644135]
 [0.10231779 0.01803503 0.27797914]
 [0.09583415 0.02089167 0.2885666 ]
 [0.08933678 0.02410646 0.29785863]
 [0.08307843 0.02752886 0.30562444]
 [0.07732082 0.03095134 0.31177639]
 [0.07232146 0.03412742 0.3163619 ]
 [0.06832061 0.03679971 0.31953432]
 [0.06552532 0.03873331 0.32149231]
 [0.06408768 0.03974869 0.32241785]]","[[0.16178335 0.00967021 0.09368086]
 [0.16543477 0.00997658 0.10214533]
 [0.17256579 0.01057195 0.1190519 ]
 [0.182861   0.01142254 0.14430142]
 [0.19590973 0.0124794  0.17762639]
 [0.2112634  0.01368321 0.21848992]
 [0.22847457 0.01496771 0.26601101]
 [0.24711435 0.01626508 0.31893374]
 [0.26675849 0.01751159 0.37566336]
 [0.28694962 0.01865149 0.43435291]
 [0.30714955 0.01964061 0.49303152]
 [0.32670245 0.02044769 0.54972092]
 [0.34482442 0.02105433 0.60254388]
 [0.3606383  0.02145387 0.64981127]
 [0.3732428  0.02164962 0.69008106]
 [0.38181039 0.02165275 0.72219472]
 [0.38569815 0.02148089 0.74530483]
 [0.38454511 0.0211573  0.75891261]
 [0.37832891 0.02070931 0.7628977 ]
 [0.36738159 0.02016663 0.75754   ]
 [0.35236257 0.01956012 0.74351447]
 [0.33418731 0.01892012 0.72185491]
 [0.31393493 0.01827505 0.69387831]
 [0.29274428 0.01765024 0.66108528]
 [0.27171436 0.01706704 0.62504256]
 [0.25181868 0.01654208 0.58726993]
 [0.23383939 0.01608692 0.54914314]
 [0.21831834 0.01570731 0.51182133]
 [0.20554085 0.0154037  0.47620852]
 [0.1955321  0.01517041 0.44293499]
 [0.1880838  0.01499622 0.41236761]
 [0.18279248 0.01486501 0.3846449 ]
 [0.17912786 0.01475742 0.35971696]
 [0.17649877 0.01465303 0.33739154]
 [0.17433008 0.01453269 0.31738079]
 [0.17212928 0.01438056 0.29936149]
 [0.16954033 0.01418579 0.28301077]
 [0.16637182 0.01394368 0.2680368 ]
 [0.16260117 0.01365517 0.25419218]
 [0.15834887 0.01332556 0.24128551]
 [0.1538398  0.01296383 0.22917936]
 [0.14935032 0.01258013 0.21779093]
 [0.14515348 0.01218425 0.20708698]
 [0.14147288 0.01178471 0.1970775 ]
 [0.13845367 0.01138823 0.1878135 ]
 [0.1361536  0.01100002 0.17937871]
 [0.134547   0.01062352 0.1718788 ]
 [0.13354428 0.01026174 0.16542526]
 [0.13301966 0.00991737 0.16011558]
 [0.13283887 0.00959362 0.15601068]
 [0.13288355 0.00929452 0.15311723]
 [0.13306129 0.00902474 0.15137472]
 [0.13331768 0.00878975 0.15065243]
 [0.13363048 0.00859552 0.15076043]
 [0.13400382 0.00844825 0.151465  ]
 [0.13445749 0.00835383 0.1525178 ]
 [0.13501866 0.00831785 0.15368649]
 [0.13571112 0.00834474 0.15478143]
 [0.13654742 0.00843723 0.15567636]
 [0.13752849 0.00859621 0.15631975]
 [0.13863897 0.00882066 0.15673615]
 [0.13984537 0.00910687 0.15701199]
 [0.14109757 0.00944923 0.15727401]
 [0.14232947 0.00984004 0.15766207]
 [0.14346419 0.01027042 0.15830131]
 [0.14441607 0.01073114 0.15928153]
 [0.1451002  0.01121243 0.16063805]
 [0.14543774 0.01170507 0.16235229]
 [0.14537006 0.01219958 0.16435582]
 [0.14486238 0.012686   0.16654439]
 [0.14391808 0.01315373 0.16879923]
 [0.14257996 0.01359097 0.17100536]
 [0.14093401 0.01398531 0.17306405]
 [0.13910332 0.01432459 0.17490159]
 [0.13723622 0.01459789 0.17647175]
 [0.13548902 0.01479719 0.17775601]
 [0.13400149 0.01491812 0.17875454]
 [0.13287537 0.01495982 0.17948504]
 [0.13215699 0.01492476 0.17997282]
 [0.13182835 0.01481721 0.18024891]
 [0.13181228 0.01464171 0.18034453]
 [0.1319848  0.01440155 0.18029251]
 [0.13219793 0.01409841 0.18012643]
 [0.13230862 0.01373278 0.17988381]
 [0.13220437 0.01330486 0.17960703]
 [0.13182279 0.01281652 0.17934169]
 [0.13115947 0.01227299 0.17913675]
 [0.1302656  0.01168401 0.17903438]
 [0.1292382  0.01106406 0.17906303]
 [0.12819708 0.01043173 0.1792306 ]
 [0.12726298 0.00980761 0.17951863]
 [0.12653534 0.00921236 0.17988374]
 [0.12607859 0.00866444 0.18026537]
 [0.1259102  0.0081781  0.18060156]
 [0.12600247 0.00776283 0.18084454]
 [0.12629109 0.00742271 0.18097117]
 [0.12668628 0.00715766 0.180991  ]
 [0.12709182 0.0069647  0.18093897]
 [0.12741901 0.00683944 0.18086391]
 [0.12760063 0.00677804 0.18081244]]","[[0.02839019 0.00628255 0.03540054]
 [0.02939125 0.00643996 0.0394686 ]
 [0.03148975 0.00676418 0.04781393]
 [0.03486999 0.00727312 0.06079916]
 [0.03978695 0.00799186 0.07883595]
 [0.04653853 0.00894934 0.10224898]
 [0.05542709 0.01017463 0.13113203]
 [0.06671453 0.01169003 0.16522981]
 [0.08056178 0.01350457 0.20385896]
 [0.09697704 0.01560658 0.24590619]
 [0.11576576 0.01795796 0.28991007]
 [0.13650195 0.02049072 0.33420777]
 [0.15852796 0.02310793 0.37712591]
 [0.18098438 0.02568853 0.41715898]
 [0.20287478 0.02809762 0.45310913]
 [0.2231633  0.03020001 0.48415358]
 [0.24087835 0.0318747  0.50983802]
 [0.25521693 0.03302902 0.53000933]
 [0.26563354 0.03360949 0.54472094]
 [0.27188771 0.03360731 0.55414339]
 [0.27405348 0.03305832 0.55850261]
 [0.27248687 0.03203693 0.55806118]
 [0.26776216 0.03064563 0.55312788]
 [0.26058727 0.02900211 0.54408351]
 [0.25172537 0.02722643 0.53140348]
 [0.24192038 0.02542959 0.51565909]
 [0.2318471  0.02370513 0.49749633]
 [0.22208387 0.02212498 0.47759741]
 [0.21309835 0.0207376  0.45663376]
 [0.20524537 0.01956962 0.43522363]
 [0.19877187 0.01862889 0.41390155]
 [0.19382079 0.01790816 0.3931009 ]
 [0.19043582 0.01738912 0.37315076]
 [0.18856767 0.0170461  0.35428425]
 [0.18808521 0.01684946 0.33664773]
 [0.18878944 0.01676775 0.32031184]
 [0.19043725 0.01676941 0.30527956]
 [0.19275499 0.0168242  0.29150096]
 [0.19546235 0.01690302 0.27889122]
 [0.19828273 0.0169788  0.26734854]
 [0.20095257 0.01702694 0.25676404]
 [0.20322447 0.0170259  0.24703732]
 [0.2048804  0.01695923 0.23808769]
 [0.20573975 0.01681713 0.2298598 ]
 [0.20567381 0.01659804 0.22232596]
 [0.20462009 0.01630934 0.21547866]
 [0.20258771 0.01596646 0.20932192]
 [0.19966386 0.0155905  0.20386339]
 [0.19599997 0.01520486 0.19910474]
 [0.19180083 0.01483142 0.19503176]
 [0.18729608 0.01448675 0.19160923]
 [0.18272115 0.01417998 0.18877981]
 [0.1782974  0.01391322 0.1864673 ]
 [0.17421426 0.01368154 0.18457639]
 [0.17062376 0.0134773  0.1830041 ]
 [0.16763863 0.01329231 0.18164285]
 [0.16532712 0.01312065 0.18038838]
 [0.16372083 0.01296131 0.17914859]
 [0.1628109  0.01281762 0.17784928]
 [0.16254746 0.01269675 0.17643874]
 [0.16284316 0.0126079  0.17489301]
 [0.16357756 0.01255956 0.17321959]
 [0.1646063  0.01255768 0.17145354]
 [0.16577301 0.01260343 0.16965619]
 [0.16692436 0.01269243 0.16790564]
 [0.16792243 0.01281484 0.16628222]
 [0.16865643 0.01295584 0.16485993]
 [0.16904404 0.01309765 0.16369411]
 [0.16902718 0.01322053 0.16281456]
 [0.16856917 0.01330572 0.16222935]
 [0.16764583 0.0133369  0.16192769]
 [0.1662444  0.01330196 0.1618941 ]
 [0.16436461 0.0131942  0.16212594]
 [0.16202992 0.01301293 0.16265068]
 [0.15929905 0.01276366 0.16354447]
 [0.15627312 0.01245777 0.16494124]
 [0.153096   0.01211137 0.16703878]
 [0.14993895 0.01174374 0.17008735]
 [0.14698075 0.01137456 0.17436599]
 [0.1443709  0.01102239 0.18015102]
 [0.14220575 0.01070209 0.18767392]
 [0.14050581 0.01042311 0.19708449]
 [0.13921176 0.01018922 0.20841731]
 [0.13819281 0.00999722 0.22157946]
 [0.1372729  0.00983879 0.2363507 ]
 [0.13625991 0.0097013  0.25240804]
 [0.13497572 0.00957004 0.26935855]
 [0.13328352 0.00943031 0.28678308]
 [0.1310987  0.00926928 0.30427187]
 [0.12839812 0.00907815 0.32145345]
 [0.1252174  0.00885292 0.3380107 ]
 [0.12164465 0.00859538 0.35367977]
 [0.11781045 0.00831285 0.36824399]
 [0.11387533 0.00801665 0.38151506]
 [0.11002205 0.00772204 0.39332156]
 [0.10644047 0.00744493 0.40349879]
 [0.10331445 0.00720126 0.41188672]
 [0.10080867 0.00700535 0.41833661]
 [0.0990573  0.00686813 0.42271829]
 [0.09815694 0.00679757 0.42493468]]","[[0.0641798  0.02977466 0.04943505]
 [0.06513636 0.0301346  0.05330703]
 [0.06713957 0.0308288  0.06130323]
 [0.07035128 0.03181061 0.07388433]
 [0.07497429 0.03301967 0.09163048]
 [0.08121051 0.03438993 0.11512922]
 [0.08920708 0.03585538 0.14485083]
 [0.09901345 0.03735219 0.18103561]
 [0.11054234 0.03881784 0.22360299]
 [0.12354923 0.04018761 0.27209776]
 [0.13763861 0.04139342 0.32569208]
 [0.15229195 0.04236197 0.38323561]
 [0.16691749 0.04302055 0.44332887]
 [0.18090507 0.04330371 0.50441151]
 [0.19368566 0.04316197 0.56484458]
 [0.2047808  0.04257002 0.62298485]
 [0.2138376  0.04153172 0.67724877]
 [0.22064549 0.0400807  0.72617194]
 [0.22514578 0.03827693 0.76847658]
 [0.22741709 0.0361984  0.80313961]
 [0.22766694 0.03393188 0.82945704]
 [0.22620428 0.03156313 0.84709682]
 [0.22341277 0.02917002 0.85611605]
 [0.21971645 0.02681801 0.85694022]
 [0.21554362 0.02455919 0.85029877]
 [0.21128987 0.02243362 0.83713004]
 [0.20728556 0.02047167 0.81847231]
 [0.20377759 0.01869784 0.79536103]
 [0.20091483 0.01713191 0.76874804]
 [0.19875329 0.01578966 0.73945286]
 [0.19726588 0.01468215 0.70814906]
 [0.19636118 0.01381395 0.67537335]
 [0.19590568 0.0131815  0.6415579 ]
 [0.19574443 0.01277302 0.60706552]
 [0.1957139  0.01256684 0.57222225]
 [0.19565553 0.0125335  0.53734113]
 [0.19542807 0.01263784 0.50273048]
 [0.19491526 0.01284179 0.46870347]
 [0.19403672 0.01310717 0.43558024]
 [0.19275244 0.01339909 0.40368004]
 [0.19106757 0.01368823 0.37330462]
 [0.18902943 0.01395226 0.34472228]
 [0.18671962 0.01417685 0.31815571]
 [0.18423827 0.01435535 0.29376633]
 [0.18168793 0.0144876  0.27164136]
 [0.17915652 0.01457867 0.25179079]
 [0.17670268 0.0146366  0.23415183]
 [0.1743542  0.01467157 0.21860227]
 [0.17210548 0.01469405 0.20498561]
 [0.16993171 0.01471371 0.19313542]
 [0.1678022  0.01473876 0.18290042]
 [0.16569467 0.01477391 0.17416653]
 [0.16360738 0.01481996 0.16685969]
 [0.16155776 0.01487219 0.16095097]
 [0.15958541 0.01492063 0.15644382]
 [0.15773693 0.01495103 0.15336108]
 [0.15605471 0.0149471  0.15172604]
 [0.15457191 0.01489379 0.15154558]
 [0.1533022  0.01478031 0.15279838]
 [0.15224128 0.01460256 0.15542381]
 [0.15137771 0.01436445 0.15931787]
 [0.15069337 0.01407637 0.16433485]
 [0.15017809 0.01375382 0.17028751]
 [0.1498313  0.01341352 0.17695675]
 [0.14966542 0.01307058 0.1841034 ]
 [0.14969722 0.01273647 0.19148781]
 [0.14994057 0.01241765 0.19888473]
 [0.15039741 0.01211629 0.20610231]
 [0.15104613 0.01183112 0.21299438]
 [0.1518424  0.01155963 0.21946427]
 [0.15272085 0.01129941 0.22546459]
 [0.15360843 0.01104945 0.23098218]
 [0.15443862 0.01081072 0.23602455]
 [0.15516693 0.01058604 0.24059965]
 [0.15578634 0.0103798  0.24470163]
 [0.15633512 0.01019696 0.24830305]
 [0.1568928  0.01004226 0.25135345]
 [0.15756496 0.00991863 0.25378767]
 [0.15846798 0.00982729 0.25554041]
 [0.15969942 0.00976653 0.25656652]
 [0.16131809 0.0097319  0.25685799]
 [0.16332513 0.00971658 0.25645972]
 [0.16565548 0.00971249 0.25547844]
 [0.16818554 0.00971152 0.25407975]
 [0.17074823 0.00970644 0.25247964]
 [0.17316032 0.00969312 0.2509235 ]
 [0.17525199 0.00967118 0.24965914]
 [0.17689752 0.00964459 0.24890546]
 [0.17803489 0.00962079 0.24882795]
 [0.17867633 0.00960975 0.24951171]
 [0.17890021 0.00962198 0.25095477]
 [0.17883178 0.00966582 0.25306994]
 [0.17861355 0.00974552 0.25569704]
 [0.17837532 0.00985964 0.25862997]
 [0.17821357 0.01000079 0.26163991]
 [0.17817113 0.01015625 0.2645036 ]
 [0.17824137 0.01030989 0.26702506]
 [0.17838057 0.01044448 0.26904627]
 [0.17852347 0.01054429 0.2704532 ]
 [0.17861248 0.01059745 0.27117377]]","[[0.03318789 0.00563644 0.0491705 ]
 [0.03411045 0.00572694 0.05605356]
 [0.03599679 0.00591287 0.07013301]
 [0.03892007 0.00620394 0.09194306]
 [0.04297055 0.00661293 0.12207988]
 [0.04823702 0.00715508 0.16098462]
 [0.05478349 0.00784499 0.20870634]
 [0.06263462 0.00869416 0.26471574]
 [0.07176156 0.00970846 0.32779491]
 [0.08207983 0.01088475 0.39604945]
 [0.0934546  0.01220894 0.46703637]
 [0.10571165 0.01365473 0.53802821]
 [0.11865101 0.01518398 0.60633441]
 [0.13206536 0.01674956 0.6696287 ]
 [0.14574614 0.01829866 0.72620851]
 [0.15949044 0.0197784  0.77513104]
 [0.17309545 0.02114087 0.81620443]
 [0.18635159 0.02234688 0.84984592]
 [0.19903413 0.02336956 0.87684586]
 [0.21089745 0.02419342 0.89810488]
 [0.22168145 0.02481458 0.9144031 ]
 [0.23112427 0.02523799 0.92624021]
 [0.23898867 0.02547492 0.93377801]
 [0.24509142 0.02554112 0.93686885]
 [0.24933096 0.02545574 0.93515051]
 [0.25171009 0.02524112 0.92817729]
 [0.25234191 0.02492264 0.91555554]
 [0.25143928 0.02452888 0.89705593]
 [0.24929206 0.02409004 0.87269699]
 [0.24622892 0.02363583 0.84278141]
 [0.2425782  0.02319275 0.80789724]
 [0.23863503 0.02278083 0.76887588]
 [0.23462745 0.02241121 0.7267246 ]
 [0.2307089  0.02208551 0.68253449]
 [0.22695556 0.0217961  0.63739505]
 [0.22337784 0.02152874 0.59229759]
 [0.21994405 0.0212656  0.54808376]
 [0.21659894 0.02098868 0.50541434]
 [0.21329032 0.02068308 0.46477519]
 [0.20997941 0.02033765 0.42649211]
 [0.20665432 0.01994677 0.39077956]
 [0.20332657 0.0195097  0.35778659]
 [0.20001972 0.01902922 0.32762224]
 [0.19676182 0.01851162 0.30036366]
 [0.19357191 0.01796485 0.27606117]
 [0.19045359 0.01739883 0.254726  ]
 [0.18739243 0.01682392 0.2363141 ]
 [0.18436083 0.01625049 0.22071707]
 [0.1813201  0.01568847 0.20775952]
 [0.17823177 0.01514621 0.19720968]
 [0.17506702 0.01463037 0.18879383]
 [0.17180924 0.01414609 0.18221762]
 [0.16846308 0.01369753 0.17718717]
 [0.16506037 0.01328872 0.17342689]
 [0.16165822 0.01292412 0.17069559]
 [0.15834872 0.01260937 0.16879291]
 [0.15524973 0.01235093 0.16756817]
 [0.15249692 0.01215472 0.16691836]
 [0.1502281  0.01202507 0.16678503]
 [0.14856283 0.01196172 0.16714506]
 [0.1475814  0.01195965 0.16799734]
 [0.14730494 0.01200765 0.16934341]
 [0.14769101 0.01208941 0.17117696]
 [0.14863577 0.01218589 0.17346669]
 [0.14999281 0.01227801 0.17615047]
 [0.15159818 0.01235078 0.1791373 ]
 [0.15329683 0.01239628 0.18231173]
 [0.15496837 0.01241567 0.18554603]
 [0.15653608 0.01241904 0.18871396]
 [0.15796655 0.0124237  0.19170309]
 [0.15925812 0.01245013 0.19442555]
 [0.16042081 0.01251731 0.19682354]
 [0.16145661 0.0126379  0.19887367]
 [0.16235253 0.01281527 0.2005858 ]
 [0.16307344 0.01304148 0.20200017]
 [0.16357208 0.01329875 0.20317894]
 [0.16380073 0.01356201 0.20420063]
 [0.16372278 0.01380357 0.20514714]
 [0.16331991 0.01399776 0.20609211]
 [0.16258903 0.01412417 0.20708904]
 [0.16153755 0.01417118 0.20816392]
 [0.16017154 0.01413607 0.20930874]
 [0.15849208 0.01402384 0.21048763]
 [0.15649494 0.01384617 0.21164614]
 [0.15417827 0.01361826 0.2127297 ]
 [0.15155291 0.01335658 0.21369884]
 [0.14865842 0.01307726 0.2145466 ]
 [0.14557158 0.01279533 0.215309  ]
 [0.14240589 0.01252436 0.21606537]
 [0.1393049  0.01227607 0.21692807]
 [0.1364226  0.01206032 0.21802045]
 [0.13390087 0.01188471 0.2194504 ]
 [0.13185044 0.0117539  0.22128221]
 [0.13032714 0.01166861 0.2235096 ]
 [0.1293288  0.01162564 0.22604674]
 [0.12879292 0.01161753 0.22872638]
 [0.12860887 0.01163352 0.23132192]
 [0.12864117 0.01166086 0.23357571]
 [0.12875522 0.01168737 0.23524229]
 [0.12884277 0.01170311 0.23612896]]","[[0.02631    0.00572446 0.05886399]
 [0.02767233 0.00585884 0.06577328]
 [0.03043489 0.00613167 0.07967708]
 [0.0346652  0.00655032 0.10066783]
 [0.04043842 0.00712266 0.1287077 ]
 [0.04781511 0.00785481 0.16346575]
 [0.05681442 0.00874715 0.20417856]
 [0.06738973 0.00979169 0.24957639]
 [0.07941002 0.01096985 0.29790514]
 [0.09265187 0.01225077 0.34704795]
 [0.10679632 0.01359215 0.3947516 ]
 [0.12144106 0.0149414  0.43889416]
 [0.13612565 0.01623968 0.47774011]
 [0.15036358 0.01742683 0.51013259]
 [0.16368015 0.01844699 0.53557249]
 [0.1756589  0.01925464 0.55417868]
 [0.18598268 0.01982019 0.56655126]
 [0.19446751 0.02013373 0.57357861]
 [0.20107568 0.02020623 0.57624513]
 [0.20591771 0.02006845 0.57548066]
 [0.20922659 0.01976735 0.57207484]
 [0.21132171 0.01935958 0.56665342]
 [0.21255522 0.01890425 0.55970376]
 [0.21326811 0.0184563  0.5516139 ]
 [0.21374448 0.01806023 0.54270743]
 [0.2141887  0.01774653 0.53326134]
 [0.21471762 0.01753082 0.52350516]
 [0.21536608 0.01741471 0.51360311]
 [0.21610803 0.01738914 0.50364587]
 [0.21687984 0.01743802 0.49364617]
 [0.21759906 0.01754213 0.4835534 ]
 [0.21818248 0.01768188 0.47327579]
 [0.21855213 0.01783848 0.46271262]
 [0.21863825 0.01799466 0.45178749]
 [0.21837962 0.01813364 0.44046941]
 [0.21772395 0.01823867 0.42878783]
 [0.21663232 0.01829263 0.41682817]
 [0.21508531 0.01827824 0.40471715]
 [0.21309144 0.01817997 0.39260646]
 [0.21068794 0.01798557 0.38064342]
 [0.20794456 0.01768848 0.3689466 ]
 [0.20495247 0.01728986 0.35758519]
 [0.20181219 0.01679878 0.34657563]
 [0.1986192  0.01623239 0.33589055]
 [0.19544404 0.01561404 0.32547898]
 [0.19232641 0.01497085 0.31529212]
 [0.18926899 0.01433112 0.30531116]
 [0.18624304 0.01372135 0.29556341]
 [0.18320272 0.01316437 0.28612867]
 [0.18010123 0.01267749 0.27712585]
 [0.17690417 0.01227224 0.26869284]
 [0.17360829 0.01195464 0.26095518]
 [0.17024621 0.01172592 0.25399545]
 [0.16688552 0.01158332 0.24783519]
 [0.16362809 0.01152178 0.24242004]
 [0.16059957 0.01153418 0.23762759]
 [0.15793518 0.01161233 0.23327972]
 [0.15576105 0.01174608 0.2291657 ]
 [0.15418327 0.01192397 0.22506952]
 [0.15327185 0.01213247 0.22079251]
 [0.1530489  0.01235625 0.21617564]
 [0.1534861  0.01257857 0.21111348]
 [0.15451025 0.01278261 0.20556635]
 [0.15602246 0.01295326 0.19955756]
 [0.15791012 0.01307839 0.19317304]
 [0.16007824 0.0131502  0.18654879]
 [0.16245954 0.01316636 0.17985602]
 [0.16502602 0.01312984 0.17328258]
 [0.16778594 0.01304817 0.16702361]
 [0.1707577  0.01293218 0.16126585]
 [0.17395087 0.01279462 0.15618383]
 [0.17733777 0.01264804 0.15194017]
 [0.18082983 0.01250356 0.14868897]
 [0.18427318 0.01236987 0.14657299]
 [0.18746327 0.01225184 0.14571739]
 [0.19016798 0.0121505  0.14622351]
 [0.19216663 0.01206315 0.14814935]
 [0.19328486 0.01198375 0.15149586]
 [0.19342611 0.01190469 0.15619625]
 [0.19258309 0.01181776 0.16210999]
 [0.19083849 0.01171599 0.16903167]
 [0.18834322 0.01159494 0.1767101 ]
 [0.18528848 0.01145248 0.18487859]
 [0.18187412 0.01128916 0.19328613]
 [0.17827762 0.01110644 0.20172698]
 [0.1746396  0.01090546 0.21006053]
 [0.17105132 0.01068629 0.21822471]
 [0.16756441 0.01044653 0.22623003]
 [0.16419894 0.01018216 0.2341442 ]
 [0.16096098 0.00988833 0.24206436]
 [0.15786014 0.00956135 0.25008463]
 [0.15491991 0.00920105 0.25825946]
 [0.15217367 0.00881184 0.26657246]
 [0.14966959 0.00840406 0.27491561]
 [0.14745938 0.00799382 0.28307627]
 [0.1455848  0.00760143 0.29074995]
 [0.14407743 0.00724979 0.29756505]
 [0.14294957 0.00696156 0.30312805]
 [0.14220429 0.00675698 0.30707383]
 [0.14183466 0.00665074 0.30912289]]","[[0.03099544 0.00601815 0.06371397]
 [0.03301766 0.00626504 0.07037718]
 [0.03710244 0.00676536 0.08374174]
 [0.04331612 0.00752896 0.10381859]
 [0.05172598 0.00856621 0.13047658]
 [0.0623711  0.00988073 0.16330935]
 [0.07522908 0.01146471 0.20152878]
 [0.09018709 0.01329255 0.24391857]
 [0.10702353 0.01531679 0.28887778]
 [0.12539507 0.0174674  0.33454596]
 [0.14484476 0.01965356 0.37899376]
 [0.16481537 0.02177077 0.42044779]
 [0.1846748  0.02370983 0.45748664]
 [0.20375206 0.02536812 0.48916874]
 [0.22137937 0.02666173 0.51505837]
 [0.23693298 0.02753474 0.53515793]
 [0.24988156 0.0279656  0.54977124]
 [0.25983272 0.02796978 0.5593456 ]
 [0.26656772 0.02759528 0.56433271]
 [0.27006993 0.02691654 0.56510058]
 [0.27052789 0.02602367 0.56191793]
 [0.26832008 0.02501132 0.55498906]
 [0.26397062 0.02396783 0.54452204]
 [0.25809186 0.02296682 0.53079986]
 [0.25130677 0.0220616  0.51422819]
 [0.24418359 0.02128332 0.49534948]
 [0.23717936 0.02064295 0.47481902]
 [0.23060451 0.02013456 0.45335623]
 [0.2246173  0.01974098 0.4316765 ]
 [0.21924235 0.01943874 0.41042852]
 [0.21440501 0.01920159 0.39014343]
 [0.20997578 0.01900305 0.37120327]
 [0.20581201 0.01881734 0.35383473]
 [0.20178908 0.01861895 0.33811515]
 [0.19781457 0.01838321 0.32399911]
 [0.19383405 0.01808626 0.31134532]
 [0.18982429 0.01770802 0.2999532 ]
 [0.18577903 0.01723457 0.28959961]
 [0.1816974  0.01666145 0.28006375]
 [0.17757411 0.01599676 0.27114607]
 [0.17339666 0.01526047 0.26267619]
 [0.16914724 0.01448405 0.25451944]
 [0.16481075 0.01370572 0.24657717]
 [0.16038786 0.01296571 0.23878547]
 [0.15590595 0.01230067 0.23111003]
 [0.15142481 0.0117381  0.22354201]
 [0.14704397 0.01129418 0.21609651]
 [0.14289171 0.01097132 0.20880937]
 [0.13911413 0.01075979 0.2017378 ]
 [0.13585877 0.01064065 0.19495568]
 [0.13325894 0.01058913 0.18855048]
 [0.13141749 0.0105797  0.18261808]
 [0.13040033 0.01058977 0.17725629]
 [0.13023687 0.01060335 0.17255796]
 [0.13092509 0.01061271 0.16860235]
 [0.13243911 0.01061824 0.16544975]
 [0.13473626 0.0106275  0.1631367 ]
 [0.13776572 0.01065254 0.16167226]
 [0.14146205 0.010706   0.16103401]
 [0.14574532 0.0107985  0.16116757]
 [0.15051091 0.01093451 0.16198848]
 [0.15562949 0.01111111 0.16337637]
 [0.16094303 0.0113175  0.16518413]
 [0.16627532 0.01153658 0.16724678]
 [0.17143988 0.01174761 0.16939272]
 [0.17625632 0.01192983 0.17146063]
 [0.18056252 0.01206653 0.17331674]
 [0.18422679 0.01214779 0.17486858]
 [0.18716042 0.0121729  0.1760747 ]
 [0.18931219 0.01214964 0.17694633]
 [0.19067072 0.01209293 0.17754162]
 [0.19125361 0.01202156 0.17794909]
 [0.19110072 0.0119541  0.17827094]
 [0.19025994 0.01190501 0.17859907]
 [0.18878278 0.01188234 0.17900104]
 [0.18671632 0.01188568 0.17950678]
 [0.18410495 0.0119073  0.18010645]
 [0.18099584 0.01193414 0.18075886]
 [0.17744871 0.01195104 0.18140326]
 [0.17354043 0.01194428 0.18197483]
 [0.16937359 0.01190418 0.18241893]
 [0.16507715 0.01182735 0.18270265]
 [0.16079652 0.01171673 0.1828145 ]
 [0.15668612 0.01158064 0.18276331]
 [0.1528937  0.01143102 0.18256831]
 [0.14954601 0.01128087 0.18225004]
 [0.14673847 0.01114242 0.18182334]
 [0.14452764 0.01102557 0.18129111]
 [0.14293121 0.01093749 0.18064651]
 [0.14193088 0.0108826  0.17987734]
 [0.14147308 0.01086238 0.17897216]
 [0.14147919 0.01087641 0.17792896]
 [0.14184809 0.01092157 0.17675894]
 [0.14247143 0.01099285 0.17549372]
 [0.14323732 0.0110829  0.17418543]
 [0.14404043 0.0111825  0.17290481]
 [0.14478831 0.01128087 0.17173454]
 [0.1454098  0.01136703 0.17075991]
 [0.1458513  0.01143097 0.17005974]
 [0.1460798  0.01146506 0.16969392]]","[[0.04485101 0.01410495 0.10588661]
 [0.04734006 0.01479795 0.11489242]
 [0.05228805 0.01615917 0.13269467]
 [0.05962335 0.01813521 0.15881401]
 [0.06921683 0.02063891 0.19241706]
 [0.0808652  0.02354398 0.23223779]
 [0.0942763  0.02668438 0.27655683]
 [0.10906935 0.02986027 0.32326732]
 [0.12478387 0.03285284 0.37005227]
 [0.14090127 0.03544506 0.41462929]
 [0.15686927 0.03744694 0.45502621]
 [0.17213555 0.03871952 0.48981778]
 [0.18617179 0.03919215 0.51826708]
 [0.19850359 0.03887149 0.54034223]
 [0.20872476 0.03783601 0.55659477]
 [0.21652417 0.03622151 0.56794078]
 [0.22170154 0.03419841 0.57539843]
 [0.22418172 0.0319457  0.57985298]
 [0.22403034 0.0296287  0.58189941]
 [0.22145729 0.02738219 0.58178425]
 [0.21680873 0.02530225 0.57945017]
 [0.21054912 0.02344505 0.57465216]
 [0.20322334 0.02183275 0.56710089]
 [0.19541401 0.02046172 0.55660074]
 [0.1876867  0.01931138 0.54314175]
 [0.18053874 0.01835282 0.52694238]
 [0.17435641 0.01755443 0.50843352]
 [0.169389   0.01688642 0.48820666]
 [0.16573601 0.01632255 0.46693824]
 [0.16335775 0.0158419  0.44530647]
 [0.16210579 0.01542986 0.42392695]
 [0.16175007 0.01507683 0.40330435]
 [0.16202722 0.0147789  0.38380846]
 [0.16267441 0.01453561 0.36566733]
 [0.1634588  0.0143481  0.34897507]
 [0.16419558 0.01421731 0.33371662]
 [0.16475643 0.01414199 0.31979578]
 [0.16506098 0.01411783 0.30706113]
 [0.1650718  0.01413666 0.29533153]
 [0.16477723 0.01418721 0.28441838]
 [0.16418166 0.01425568 0.27414597]
 [0.16330085 0.01432783 0.26437202]
 [0.1621554  0.01439014 0.25500042]
 [0.16077797 0.01443079 0.24598797]
 [0.15921071 0.01444024 0.23734864]
 [0.15751296 0.01441097 0.22913922]
 [0.15576257 0.01433754 0.22144897]
 [0.15405326 0.01421677 0.21437662]
 [0.1524912  0.01404758 0.20801013]
 [0.15118774 0.01383213 0.20240542]
 [0.15024869 0.01357671 0.19758056]
 [0.14976792 0.01329296 0.19350956]
 [0.14981987 0.01299788 0.19012878]
 [0.15045238 0.01271345 0.18735244]
 [0.15168995 0.01246438 0.18508092]
 [0.1535344  0.01227564 0.18321498]
 [0.15596419 0.0121685  0.18166345]
 [0.15894349 0.01215787 0.18034707]
 [0.16242347 0.01224947 0.17919875]
 [0.16634141 0.01243922 0.17816578]
 [0.17061961 0.0127136  0.17721394]
 [0.17516669 0.01305166 0.17633278]
 [0.17986999 0.01342807 0.17553768]
 [0.18460837 0.01381591 0.17487682]
 [0.18925348 0.01418976 0.17441793]
 [0.19368903 0.01452845 0.17424061]
 [0.19782258 0.01481571 0.17441157]
 [0.20159736 0.01504145 0.17496745]
 [0.2049986  0.01520095 0.17589741]
 [0.20805237 0.01529435 0.17714492]
 [0.21081719 0.01532503 0.17862433]
 [0.21336532 0.01529813 0.18025116]
 [0.21577033 0.01521951 0.1819842 ]
 [0.21809173 0.01509429 0.18385878]
 [0.2203611  0.01492676 0.18600992]
 [0.22258328 0.01472027 0.18866818]
 [0.22472691 0.01447796 0.19212869]
 [0.22673248 0.01420307 0.19669887]
 [0.22851531 0.01389989 0.20263792]
 [0.22996776 0.01357391 0.21009457]
 [0.23097503 0.01323185 0.21906744]
 [0.23142431 0.01288162 0.22939525]
 [0.23121623 0.01253133 0.24077919]
 [0.23028298 0.01218883 0.25283253]
 [0.22859632 0.0118609  0.2651459 ]
 [0.22616997 0.01155269 0.27735814]
 [0.22305428 0.01126719 0.28921685]
 [0.21931969 0.01100495 0.30061445]
 [0.21504878 0.01076412 0.31160025]
 [0.21031614 0.01054128 0.32235788]
 [0.2051882  0.01033159 0.33314805]
 [0.19973294 0.01013022 0.34423162]
 [0.19403158 0.00993346 0.35578197]
 [0.18820279 0.00973992 0.36779805]
 [0.18242178 0.00955146 0.3800453 ]
 [0.17692212 0.00937318 0.39203999]
 [0.17198975 0.00921319 0.40308867]
 [0.16793162 0.00908107 0.41237823]
 [0.16503674 0.00898636 0.41911331]
 [0.16352765 0.00893693 0.42265743]]","[[0.02685858 0.04599494 0.03989314]
 [0.02807711 0.04546782 0.04543589]
 [0.0305985  0.04445957 0.05671806]
 [0.03458177 0.04305544 0.07406178]
 [0.04023692 0.04136713 0.09777582]
 [0.04779095 0.03951689 0.12797897]
 [0.05744951 0.03762175 0.16442975]
 [0.06934431 0.03578027 0.20638504]
 [0.08349261 0.034064   0.25254137]
 [0.09975074 0.03251342 0.30107007]
 [0.11779166 0.03114005 0.3497731 ]
 [0.13709792 0.02993169 0.39632377]
 [0.15698419 0.02886075 0.43855339]
 [0.17664344 0.02789312 0.47471624]
 [0.1952184  0.02699561 0.50367959]
 [0.21188903 0.02614312 0.52500169]
 [0.22595635 0.02532173 0.53888848]
 [0.23691434 0.02452965 0.54605407]
 [0.24449379 0.02377503 0.5475249 ]
 [0.24867784 0.02307226 0.54443874]
 [0.24968112 0.02243693 0.53788753]
 [0.24790417 0.02188138 0.52881658]
 [0.24387075 0.02141062 0.51798987]
 [0.23816417 0.02102055 0.50599607]
 [0.23137398 0.0206983  0.49328341]
 [0.22404839 0.02042386 0.48018888]
 [0.21667157 0.02017352 0.46696148]
 [0.20965173 0.01992383 0.45376827]
 [0.20331562 0.01965501 0.44069627]
 [0.1979098  0.01935406 0.42775406]
 [0.19360063 0.01901617 0.41487914]
 [0.19047957 0.01864475 0.40196361]
 [0.18856003 0.01825026 0.3888826 ]
 [0.18778459 0.01784789 0.37552745]
 [0.18803942 0.01745509 0.36183821]
 [0.18917296 0.017089   0.3478131 ]
 [0.19101575 0.01676373 0.33351092]
 [0.19341136 0.01648915 0.31904862]
 [0.19622838 0.01626968 0.30458032]
 [0.19937252 0.0161039  0.29028794]
 [0.20278238 0.01598501 0.27635862]
 [0.20641766 0.015901   0.26297326]
 [0.21023953 0.01583684 0.2503003 ]
 [0.21419417 0.01577641 0.23849235]
 [0.21819858 0.01570419 0.22767532]
 [0.22214016 0.01560829 0.21794532]
 [0.22588359 0.015482   0.20935204]
 [0.2292866  0.01532448 0.20188987]
 [0.23221812 0.01514049 0.19549004]
 [0.23457211 0.01493814 0.19001987]
 [0.23627468 0.01472694 0.18530262]
 [0.23728335 0.0145138  0.18113328]
 [0.23758578 0.01430159 0.1773167 ]
 [0.23719521 0.01408771 0.17369584]
 [0.23614853 0.01386454 0.17017786]
 [0.23450769 0.01362252 0.16675242]
 [0.23235843 0.01335236 0.16348914]
 [0.22981198 0.01304932 0.16052596]
 [0.22699878 0.01271505 0.15803862]
 [0.22406218 0.01235951 0.15621031]
 [0.22113603 0.01199978 0.15519583]
 [0.21833613 0.01165769 0.15508983]
 [0.21574707 0.01135641 0.15590872]
 [0.21341789 0.01111651 0.15758174]
 [0.21136652 0.01095228 0.15996491]
 [0.20959075 0.01086967 0.16286076]
 [0.20808321 0.01086494 0.16605889]
 [0.20684127 0.01092584 0.16937247]
 [0.20586963 0.01103316 0.17267826]
 [0.20517984 0.01116335 0.17594077]
 [0.20477891 0.01129167 0.17922413]
 [0.2046556  0.01139451 0.18268191]
 [0.2047678  0.0114524  0.18652885]
 [0.20504168 0.01145145 0.19100096]
 [0.20536903 0.01138502 0.19630929]
 [0.2056191  0.01125401 0.20259816]
 [0.20565598 0.01106642 0.20992208]
 [0.20535686 0.01083665 0.21823581]
 [0.20462573 0.01058298 0.22741065]
 [0.20340439 0.0103257  0.23726728]
 [0.20167003 0.01008418 0.24761734]
 [0.19942561 0.00987423 0.25831216]
 [0.19668029 0.00970658 0.26928368]
 [0.19343158 0.00958472 0.28057047]
 [0.18964897 0.00950542 0.29231752]
 [0.18526754 0.0094592  0.30475832]
 [0.18019534 0.00943179 0.31816747]
 [0.17433276 0.00940617 0.33280017]
 [0.16760223 0.009365   0.34882336]
 [0.15998034 0.00929299 0.36625559]
 [0.15152442 0.00917866 0.38492334]
 [0.14239205 0.00901651 0.40444842]
 [0.13284088 0.00880786 0.42427311]
 [0.12321273 0.00856094 0.44370958]
 [0.1139073  0.00829038 0.46201161]
 [0.10534475 0.00801551 0.47845063]
 [0.09793263 0.00775843 0.49237677]
 [0.09203101 0.00754148 0.50326459]
 [0.08792834 0.00738431 0.51072711]
 [0.08582598 0.00730187 0.51451801]]","[[0.02520386 0.02042499 0.05246888]
 [0.02608789 0.02168379 0.06002482]
 [0.02785461 0.02408598 0.07543892]
 [0.03049835 0.02740858 0.09921146]
 [0.03400737 0.0313396  0.13187123]
 [0.03836745 0.03550678 0.17375772]
 [0.04355941 0.03951604 0.22478932]
 [0.04956967 0.04299798 0.28427016]
 [0.05639676 0.04565321 0.35077988]
 [0.06405717 0.04729019 0.42218775]
 [0.07258933 0.04784482 0.49578445]
 [0.08204943 0.04737979 0.56854676]
 [0.09249744 0.04606369 0.63747232]
 [0.10397783 0.04413381 0.6999357 ]
 [0.11649647 0.04185049 0.75398508]
 [0.12999675 0.03945752 0.79853839]
 [0.14434266 0.0371534  0.83342896]
 [0.15931053 0.03507516 0.85930365]
 [0.17458803 0.03329628 0.87739807]
 [0.18978923 0.03183596 0.8892424 ]
 [0.20447063 0.03067404 0.89635263]
 [0.21815987 0.02976652 0.89997634]
 [0.23039016 0.02905903 0.90093087]
 [0.24073814 0.02849644 0.89955617]
 [0.24886739 0.02802841 0.89577421]
 [0.25456661 0.02761181 0.88922402]
 [0.25778299 0.02721212 0.87943516]
 [0.2586408  0.02680328 0.86599149]
 [0.25743989 0.02636806 0.84865649]
 [0.25463071 0.02589848 0.82743554]
 [0.25076583 0.02539584 0.80258621]
 [0.24643835 0.02486754 0.77457942]
 [0.24221339 0.02432652 0.74403204]
 [0.23856683 0.02379108 0.71163139]
 [0.23584129 0.02328226 0.67806906]
 [0.23422209 0.02282204 0.64398299]
 [0.23373834 0.02243129 0.60993274]
 [0.23428326 0.02212709 0.57638832]
 [0.23564616 0.02192098 0.54372826]
 [0.23755125 0.02181523 0.51224678]
 [0.23970129 0.02180122 0.48216818]
 [0.24181093 0.02185907 0.45365779]
 [0.24363913 0.02195713 0.42682339]
 [0.24501462 0.02205624 0.40173897]
 [0.24585544 0.0221137  0.37845023]
 [0.24617614 0.02208933 0.35698147]
 [0.24608585 0.02195244 0.33734588]
 [0.2457764  0.02168624 0.31954884]
 [0.24549028 0.02129151 0.30358934]
 [0.2454826  0.02078542 0.28945343]
 [0.24597529 0.02019872 0.27709786]
 [0.24710606 0.01957037 0.26643438]
 [0.24889425 0.01894073 0.25731635]
 [0.25121887 0.01834538 0.24953259]
 [0.25382147 0.01780987 0.24281305]
 [0.25633062 0.01734799 0.2368531 ]
 [0.25831466 0.01696166 0.23134405]
 [0.25934259 0.01664334 0.22601286]
 [0.25905138 0.0163799  0.22065427]
 [0.25720194 0.0161576  0.21515171]
 [0.25371374 0.01596516 0.20948149]
 [0.24867933 0.01579663 0.20369872]
 [0.24234576 0.01565168 0.19790909]
 [0.23507915 0.01553465 0.19224064]
 [0.2273111  0.01545158 0.18680558]
 [0.21948754 0.01540782 0.18168578]
 [0.21201558 0.01540519 0.1769237 ]
 [0.20522901 0.01543998 0.17252731]
 [0.19935584 0.01550288 0.16848545]
 [0.19451471 0.01557904 0.16478495]
 [0.19071605 0.01565043 0.16142727]
 [0.18788078 0.01569751 0.15843361]
 [0.18586511 0.01570218 0.15584399]
 [0.18449511 0.01564959 0.15371474]
 [0.18359925 0.01552965 0.15210076]
 [0.1830411  0.01533879 0.15104893]
 [0.18273872 0.01507945 0.15058624]
 [0.18267352 0.01476052 0.15071531]
 [0.18288079 0.01439662 0.15141312]
 [0.18342725 0.01400656 0.15263537]
 [0.1843767  0.01361196 0.15432024]
 [0.1857553  0.01323496 0.15639098]
 [0.18752362 0.01289535 0.15876179]
 [0.18956195 0.01260938 0.16134376]
 [0.19167482 0.01238698 0.16404681]
 [0.19361204 0.01223139 0.16678391]
 [0.19510975 0.01213948 0.16947758]
 [0.19593022 0.012102   0.1720564 ]
 [0.19590244 0.01210615 0.17446502]
 [0.19495062 0.01213757 0.17665809]
 [0.193103   0.01218285 0.17860096]
 [0.19048468 0.01223093 0.1802695 ]
 [0.18729779 0.0122743  0.18165035]
 [0.18378524 0.0123091  0.18274055]
 [0.18020951 0.01233447 0.18355247]
 [0.17681896 0.01235138 0.1841141 ]
 [0.17383678 0.01236183 0.18446876]
 [0.17144216 0.01236781 0.18466557]
 [0.16977145 0.012371   0.18475926]
 [0.16891374 0.01237237 0.18479402]]","[[0.01945831 0.0039774  0.02628557]
 [0.01947796 0.00398577 0.02641197]
 [0.01952233 0.00400356 0.02674718]
 [0.01960281 0.00403317 0.02745361]
 [0.01973916 0.00407869 0.02880799]
 [0.01996404 0.00414649 0.03123404]
 [0.02032924 0.00424555 0.03533458]
 [0.02090632 0.00438865 0.04190628]
 [0.02179427 0.00459157 0.05195858]
 [0.02311882 0.00487342 0.06667415]
 [0.02503136 0.00525574 0.08733084]
 [0.02770479 0.00576182 0.11516309]
 [0.03131991 0.00641546 0.15117625]
 [0.03605482 0.00723933 0.19593023]
 [0.04206469 0.00825314 0.24932614]
 [0.04946976 0.00947118 0.31044373]
 [0.05834115 0.01089953 0.37747748]
 [0.06869487 0.01253341 0.44780185]
 [0.08049033 0.01435402 0.51817816]
 [0.09363524 0.01632672 0.5850854 ]
 [0.10799135 0.01840063 0.64512236]
 [0.12338177 0.02051021 0.6954277 ]
 [0.139597   0.0225793  0.73402962]
 [0.15639493 0.02452758 0.76007601]
 [0.17350125 0.02627754 0.77390579]
 [0.19060922 0.02776241 0.77695016]
 [0.20737742 0.02893221 0.77148099]
 [0.223435   0.02975716 0.76026129]
 [0.23838733 0.03022915 0.74615165]
 [0.25182982 0.03035882 0.7317347 ]
 [0.26337196 0.03017231 0.71902751]
 [0.27266318 0.02970653 0.7092988 ]
 [0.27942901 0.02900443 0.70302676]
 [0.28350377 0.02811221 0.69997345]
 [0.28486348 0.0270767  0.69934881]
 [0.28364355 0.02594518 0.70002699]
 [0.28014165 0.02476433 0.70076266]
 [0.2747956  0.02357968 0.70038151]
 [0.2681428  0.02243408 0.69791273]
 [0.26076257 0.02136602 0.69266074]
 [0.25320806 0.02040678 0.68422567]
 [0.24595174 0.01957895 0.67248315]
 [0.23933808 0.0188944  0.65751837]
 [0.23356208 0.01835472 0.63957757]
 [0.22867657 0.01795221 0.61901285]
 [0.22461879 0.01767239 0.59623459]
 [0.22125598 0.01749728 0.5716823 ]
 [0.21843324 0.01740845 0.54580392]
 [0.21602285 0.01738899 0.51905016]
 [0.21394724 0.01742581 0.49185973]
 [0.2121914  0.01750876 0.46466903]
 [0.21079094 0.01762986 0.43790661]
 [0.2098013  0.01778109 0.41198642]
 [0.20926991 0.01795243 0.38729615]
 [0.20919587 0.01813074 0.36417718]
 [0.20951761 0.01830015 0.34290997]
 [0.21010744 0.01844403 0.3236973 ]
 [0.21079089 0.018547   0.30665012]
 [0.21137917 0.01859837 0.29178041]
 [0.21170104 0.01859398 0.2790038 ]
 [0.21163529 0.01853711 0.26815044]
 [0.21112976 0.01843757 0.25898503]
 [0.21019818 0.01830895 0.25122616]
 [0.20890655 0.01816537 0.24457648]
 [0.20734942 0.01801858 0.23874677]
 [0.20561762 0.0178754  0.23347152]
 [0.20377961 0.01773728 0.22852466]
 [0.20186419 0.01760088 0.22372793]
 [0.1998592  0.01746077 0.21895208]
 [0.19772766 0.01731171 0.21411708]
 [0.19542449 0.01715173 0.20919075]
 [0.19291514 0.01698306 0.20418021]
 [0.19020171 0.01681293 0.19913371]
 [0.18733049 0.01665211 0.1941297 ]
 [0.18439682 0.01651272 0.18927285]
 [0.18153473 0.016406   0.1846824 ]
 [0.17890095 0.01633938 0.18048282]
 [0.17664752 0.0163152  0.17679432]
 [0.1748931  0.01632947 0.17371924]
 [0.17369715 0.01637291 0.17133688]
 [0.17304302 0.01643142 0.16969702]
 [0.17283731 0.01648825 0.16881669]
 [0.17291908 0.01652589 0.16868395]
 [0.17308954 0.01652799 0.16926275]
 [0.17315104 0.01648112 0.17050349]
 [0.17294227 0.01637647 0.17235206]
 [0.17237204 0.0162106  0.17475785]
 [0.17143181 0.01598555 0.17767937]
 [0.17019742 0.01570882 0.18108264]
 [0.16880894 0.01539244 0.18493397]
 [0.16743747 0.01505114 0.18918643]
 [0.1662498  0.01470054 0.19376686]
 [0.16537432 0.01435587 0.19856551]
 [0.16487779 0.01403044 0.20343172]
 [0.16475468 0.01373507 0.20817611]
 [0.164942   0.01347832 0.2125875 ]
 [0.16532706 0.01326639 0.21644621]
 [0.16577652 0.01310378 0.21954721]
 [0.16616202 0.01299375 0.22171808]
 [0.16638124 0.01293811 0.22283556]]","[[6.31600843e-02 6.40392384e-04 1.27113785e-02]
 [6.35720322e-02 6.29883645e-04 1.26651211e-02]
 [6.43692304e-02 6.11188089e-04 1.25767083e-02]
 [6.55016790e-02 5.92317401e-04 1.24543058e-02]
 [6.68987837e-02 5.89343907e-04 1.23086598e-02]
 [6.84768543e-02 6.32404672e-04 1.21544618e-02]
 [7.01429319e-02 7.70499209e-04 1.20063125e-02]
 [7.17998610e-02 1.07765621e-03 1.18790916e-02]
 [7.33517900e-02 1.65985804e-03 1.17893581e-02]
 [7.47097182e-02 2.65837400e-03 1.17559127e-02]
 [7.57981595e-02 4.24849774e-03 1.18017270e-02]
 [7.65697669e-02 6.63021775e-03 1.19606445e-02]
 [7.70191772e-02 1.00081611e-02 1.22833431e-02]
 [7.72097338e-02 1.45601989e-02 1.28463122e-02]
 [7.72979559e-02 2.03970722e-02 1.37598383e-02]
 [7.75540737e-02 2.75176392e-02 1.51714484e-02]
 [7.83796214e-02 3.57700354e-02 1.72700677e-02]
 [8.03133113e-02 4.48305045e-02 2.02803094e-02]
 [8.40106282e-02 5.42087899e-02 2.44502621e-02]
 [9.02011853e-02 6.32870518e-02 3.00326024e-02]
 [9.96121641e-02 7.13899021e-02 3.72556603e-02]
 [1.12865180e-01 7.78747161e-02 4.62962800e-02]
 [1.30356657e-01 8.22261202e-02 5.72519445e-02]
 [1.52141083e-01 8.41336966e-02 7.01253818e-02]
 [1.77838561e-01 8.35352908e-02 8.48201879e-02]
 [2.06597175e-01 8.06185390e-02 1.01156746e-01]
 [2.37126404e-01 7.57801815e-02 1.18898623e-01]
 [2.67810225e-01 6.95552923e-02 1.37792480e-01]
 [2.96888375e-01 6.25323936e-02 1.57605227e-01]
 [3.22676777e-01 5.52732946e-02 1.78149999e-01]
 [3.43789562e-01 4.82512854e-02 1.99299583e-01]
 [3.59313938e-01 4.18159914e-02 2.20977353e-01]
 [3.68910072e-01 3.61834726e-02 2.43142875e-01]
 [3.72809477e-01 3.14478230e-02 2.65770898e-01]
 [3.71724449e-01 2.76059476e-02 2.88837973e-01]
 [3.66694833e-01 2.45871021e-02 3.12333347e-01]
 [3.58893674e-01 2.22809745e-02 3.36279068e-01]
 [3.49454405e-01 2.05611053e-02 3.60770289e-01]
 [3.39331552e-01 1.93020390e-02 3.86003969e-01]
 [3.29224066e-01 1.83898355e-02 4.12292830e-01]
 [3.19558497e-01 1.77280668e-02 4.40043267e-01]
 [3.10517849e-01 1.72393582e-02 4.69688844e-01]
 [3.02100712e-01 1.68650951e-02 5.01585214e-01]
 [2.94196352e-01 1.65650655e-02 5.35885946e-01]
 [2.86646740e-01 1.63105763e-02 5.72416770e-01]
 [2.79298030e-01 1.60815184e-02 6.10585082e-01]
 [2.72029181e-01 1.58633262e-02 6.49345892e-01]
 [2.64766329e-01 1.56465669e-02 6.87245049e-01]
 [2.57484834e-01 1.54261010e-02 7.22530249e-01]
 [2.50203263e-01 1.51998801e-02 7.53319707e-01]
 [2.42976209e-01 1.49685857e-02 7.77806263e-01]
 [2.35888929e-01 1.47362053e-02 7.94453980e-01]
 [2.29050633e-01 1.45082922e-02 8.02157867e-01]
 [2.22590023e-01 1.42914808e-02 8.00341829e-01]
 [2.16643405e-01 1.40917046e-02 7.88987842e-01]
 [2.11344609e-01 1.39126449e-02 7.68595971e-01]
 [2.06810020e-01 1.37552386e-02 7.40096238e-01]
 [2.03119708e-01 1.36170849e-02 7.04723694e-01]
 [2.00292888e-01 1.34924112e-02 6.63896464e-01]
 [1.98286698e-01 1.33740141e-02 6.19102789e-01]
 [1.96986412e-01 1.32539045e-02 5.71811594e-01]
 [1.96219306e-01 1.31255293e-02 5.23415088e-01]
 [1.95775878e-01 1.29844505e-02 4.75187958e-01]
 [1.95434783e-01 1.28289304e-02 4.28269371e-01]
 [1.94994353e-01 1.26603734e-02 3.83647526e-01]
 [1.94297905e-01 1.24820691e-02 3.42148183e-01]
 [1.93252996e-01 1.22987563e-02 3.04422429e-01]
 [1.91839007e-01 1.21152898e-02 2.70935333e-01]
 [1.90102512e-01 1.19354018e-02 2.41957181e-01]
 [1.88146796e-01 1.17616358e-02 2.17564633e-01]
 [1.86113983e-01 1.15948094e-02 1.97655534e-01]
 [1.84162620e-01 1.14347861e-02 1.81970782e-01]
 [1.82450163e-01 1.12805148e-02 1.70128224e-01]
 [1.81113565e-01 1.11313644e-02 1.61660431e-01]
 [1.80260238e-01 1.09872015e-02 1.56052668e-01]
 [1.79959801e-01 1.08481651e-02 1.52781805e-01]
 [1.80240456e-01 1.07151052e-02 1.51339382e-01]
 [1.81095570e-01 1.05892759e-02 1.51261510e-01]
 [1.82481224e-01 1.04720028e-02 1.52139977e-01]
 [1.84317154e-01 1.03644988e-02 1.53638606e-01]
 [1.86497110e-01 1.02677512e-02 1.55498233e-01]
 [1.88893107e-01 1.01821651e-02 1.57538742e-01]
 [1.91358763e-01 1.01075571e-02 1.59655628e-01]
 [1.93748181e-01 1.00430727e-02 1.61811341e-01]
 [1.95920975e-01 9.98625290e-03 1.64018174e-01]
 [1.97756928e-01 9.93353242e-03 1.66317321e-01]
 [1.99162416e-01 9.87955378e-03 1.68756773e-01]
 [2.00075818e-01 9.81765933e-03 1.71365590e-01]
 [2.00466985e-01 9.74068114e-03 1.74139819e-01]
 [2.00334808e-01 9.64117531e-03 1.77031978e-01]
 [1.99703277e-01 9.51315722e-03 1.79956763e-01]
 [1.98620395e-01 9.35364120e-03 1.82800890e-01]
 [1.97157692e-01 9.16310255e-03 1.85442373e-01]
 [1.95408385e-01 8.94711485e-03 1.87772760e-01]
 [1.93492368e-01 8.71601943e-03 1.89717272e-01]
 [1.91550431e-01 8.48434506e-03 1.91243932e-01]
 [1.89736109e-01 8.26896722e-03 1.92364098e-01]
 [1.88205069e-01 8.08770183e-03 1.93122433e-01]
 [1.87094275e-01 7.95651686e-03 1.93580314e-01]
 [1.86511484e-01 7.88767358e-03 1.93792916e-01]]","[[0.02932936 0.00349826 0.01578   ]
 [0.0292777  0.00351276 0.01580552]
 [0.029182   0.00353999 0.01586755]
 [0.02905721 0.00357698 0.01599067]
 [0.02892667 0.00362158 0.01621452]
 [0.02882278 0.00367342 0.0165968 ]
 [0.02878962 0.00373581 0.01721634]
 [0.02888598 0.00381648 0.01817763]
 [0.02919054 0.00392702 0.01961519]
 [0.02980536 0.00408323 0.02169581]
 [0.03085897 0.00430222 0.02461418]
 [0.03250965 0.00460159 0.02858679]
 [0.03494216 0.00499716 0.03383488]
 [0.03835883 0.00550008 0.04056001]
 [0.0429748  0.00611619 0.0489141 ]
 [0.04899595 0.0068434  0.05896589]
 [0.05660599 0.0076717  0.07067432]
 [0.06594621 0.00858344 0.08387053]
 [0.07709976 0.00955471 0.09825669]
 [0.09007821 0.01055938 0.11342449]
 [0.10481619 0.01157211 0.12889544]
 [0.12117056 0.01257272 0.14417387]
 [0.13892776 0.0135483  0.15881618]
 [0.15781534 0.01449336 0.17248472]
 [0.17751734 0.01540777 0.18500207]
 [0.19768935 0.01629129 0.19637798]
 [0.2179729  0.01713919 0.20682335]
 [0.2380042  0.01793711 0.21673798]
 [0.257425   0.01865958 0.22668584]
 [0.27588767 0.01927251 0.23735486]
 [0.29305844 0.019738   0.24950946]
 [0.30862729 0.0200236  0.26393538]
 [0.3223148  0.02010986 0.28137836]
 [0.33388652 0.01999675 0.30247958]
 [0.34316555 0.0197063  0.32771333]
 [0.35004448 0.01927897 0.3573313 ]
 [0.35449773 0.01876823 0.39132565]
 [0.35658269 0.01823122 0.42941498]
 [0.35643503 0.01771956 0.47105964]
 [0.35425889 0.01727282 0.51550548]
 [0.35030795 0.01691362 0.5618424 ]
 [0.34486767 0.01664869 0.60907488]
 [0.33823009 0.01647047 0.65619136]
 [0.33067822 0.01636228 0.70221408]
 [0.3224707  0.01630292 0.74624139]
 [0.31383655 0.0162707  0.78747093]
 [0.30496845 0.01624632 0.82521584]
 [0.29602367 0.01621386 0.8589141 ]
 [0.28712333 0.01616087 0.88813087]
 [0.27835396 0.01607834 0.91255801]
 [0.26976897 0.01595938 0.93200496]
 [0.26139128 0.01579981 0.94637951]
 [0.25321217 0.01559746 0.9556599 ]
 [0.24520272 0.01535146 0.95986329]
 [0.23732516 0.01506304 0.95901572]
 [0.22954126 0.01473374 0.9531312 ]
 [0.22183524 0.01436618 0.94220743]
 [0.21421938 0.01396341 0.92623605]
 [0.206745   0.01352952 0.90522921]
 [0.19949989 0.01307086 0.87925621]
 [0.19260406 0.01259648 0.84847731]
 [0.18618986 0.01211942 0.81317211]
 [0.18038464 0.01165689 0.77375659]
 [0.17528973 0.01122903 0.73077864]
 [0.17096222 0.01085754 0.68491387]
 [0.16740522 0.01056227 0.63693797]
 [0.16456467 0.01035897 0.58770254]
 [0.16233555 0.01025584 0.53810095]
 [0.16057681 0.01025221 0.48903848]
 [0.1591251  0.01033794 0.44139747]
 [0.15781696 0.01049429 0.39600677]
 [0.15650377 0.01069616 0.35360686]
 [0.15505826 0.01091473 0.31481965]
 [0.1533789  0.01112122 0.28012358]
 [0.15139113 0.01128955 0.24983649]
 [0.14904572 0.01139916 0.22410878]
 [0.14631871 0.01143595 0.20292748]
 [0.14321682 0.01139311 0.18613313]
 [0.13978324 0.01126995 0.17344817]
 [0.13610688 0.01107186 0.16450375]
 [0.13232081 0.01080781 0.15887471]
 [0.12859689 0.01048981 0.15611264]
 [0.12512927 0.01013154 0.15576789]
 [0.12211011 0.00974744 0.15741395]
 [0.11970538 0.00935275 0.16066114]
 [0.1180284  0.00896237 0.1651637 ]
 [0.11712541 0.00859131 0.1706259 ]
 [0.11697578 0.00825368 0.17679748]
 [0.11749425 0.00796185 0.18346657]
 [0.11855209 0.00772551 0.19045143]
 [0.11999624 0.00755031 0.19758843]
 [0.12167046 0.00743748 0.20472237]
 [0.12342873 0.00738306 0.21169684]
 [0.12515129 0.00737848 0.21834835]
 [0.12674353 0.00741192 0.22450579]
 [0.12813747 0.00746918 0.22999367]
 [0.1292885  0.00753581 0.23463997]
 [0.13016798 0.00759866 0.23828541]
 [0.13076083 0.00764681 0.24079621]
 [0.13105887 0.00767293 0.24207696]]","[[0.02844227 0.0054358  0.02721853]
 [0.02837161 0.00541399 0.02734968]
 [0.02823783 0.00536943 0.02760822]
 [0.02805411 0.00530073 0.02798523]
 [0.02783768 0.00520706 0.02846911]
 [0.02760479 0.00508864 0.02904442]
 [0.02736968 0.00494774 0.02969818]
 [0.02714001 0.0047883  0.03042216]
 [0.02691742 0.00461538 0.03122461]
 [0.02669929 0.00443474 0.03214568]
 [0.02648035 0.00425174 0.03328078]
 [0.02625895 0.00407125 0.03480667]
 [0.02604327 0.00389755 0.03701083]
 [0.02586083 0.00373469 0.04032077]
 [0.02576613 0.00358748 0.04532367]
 [0.02585071 0.00346175 0.05276941]
 [0.02625326 0.00336558 0.06354634]
 [0.02716252 0.00330914 0.07862299]
 [0.02882091 0.00330452 0.09894881]
 [0.03152323 0.00336539 0.12531981]
 [0.03560543 0.00350548 0.15821423]
 [0.04143364 0.00373776 0.19762543]
 [0.04937539 0.00407248 0.24292208]
 [0.05977154 0.00451497 0.2927671 ]
 [0.0729036  0.00506507 0.34513205]
 [0.08895856 0.00571483 0.39743024]
 [0.10800304 0.00644946 0.44676092]
 [0.12996061 0.00724748 0.49024697]
 [0.15460142 0.00808296 0.52542244]
 [0.18154582 0.00892895 0.55060618]
 [0.21027956 0.00976057 0.56519648]
 [0.24017666 0.01055882 0.56982949]
 [0.27052794 0.01131306 0.56636202]
 [0.30057077 0.0120221  0.5576731 ]
 [0.32951857 0.0126933  0.54730485]
 [0.35657822 0.01333976 0.5389962 ]
 [0.38097462 0.01397644 0.53618272]
 [0.40196371 0.01461531 0.541539  ]
 [0.41885412 0.01526056 0.55664451]
 [0.43103667 0.01590632 0.58181422]
 [0.43801766 0.01653534 0.61612524]
 [0.43946765 0.01712091 0.65762131]
 [0.43527109 0.0176305  0.70364745]
 [0.42557397 0.01803145 0.75125155]
 [0.41081009 0.01829711 0.79757078]
 [0.39170307 0.01841209 0.84014394]
 [0.36923362 0.0183758  0.87709994]
 [0.34456653 0.018203   0.90721593]
 [0.31895488 0.01792195 0.92985811]
 [0.29362682 0.01756954 0.94483995]
 [0.26967418 0.01718447 0.95225155]
 [0.24797098 0.01680123 0.95229802]
 [0.22911419 0.01644459 0.94519129]
 [0.21340991 0.01612681 0.93109815]
 [0.20088776 0.01584781 0.91015081]
 [0.19135043 0.01559723 0.88250241]
 [0.18442826 0.0153596  0.84840511]
 [0.17964527 0.01511858 0.80828488]
 [0.17647953 0.01486159 0.76279552]
 [0.17441098 0.01458196 0.71283545]
 [0.17295933 0.01427949 0.65952744]
 [0.17171439 0.01395926 0.60416722]
 [0.17035204 0.01362937 0.54814366]
 [0.16865064 0.01329845 0.49284933]
 [0.16649351 0.01297443 0.43959403]
 [0.16385802 0.01266243 0.389524  ]
 [0.16080878 0.01236594 0.34355842]
 [0.15747568 0.01208691 0.30235687]
 [0.15402994 0.01182706 0.26630703]
 [0.150658   0.01158825 0.23553754]
 [0.14753178 0.0113725  0.20995113]
 [0.1447907  0.01118214 0.18927525]
 [0.14252815 0.01101892 0.1731176 ]
 [0.14078495 0.01088316 0.16102589]
 [0.13955318 0.01077316 0.15253509]
 [0.13878228 0.01068467 0.14720417]
 [0.13839408 0.01061044 0.14463891]
 [0.13828575 0.01054037 0.14450027]
 [0.13834628 0.01046222 0.14650536]
 [0.13845632 0.01036262 0.15042041]
 [0.13849655 0.01022816 0.15605777]
 [0.13835836 0.01004744 0.16326839]
 [0.13795043 0.00981269 0.17193865]
 [0.13721667 0.00952192 0.18198561]
 [0.13614417 0.00917963 0.19335085]
 [0.13477619 0.00879711 0.20599766]
 [0.13320862 0.00839155 0.21990076]
 [0.13157961 0.00798408 0.23504257]
 [0.13004848 0.00759678 0.25140029]
 [0.12877021 0.00724987 0.26892994]
 [0.12786845 0.00695887 0.28754295]
 [0.12741533 0.00673299 0.30707008]
 [0.12742044 0.00657422 0.32722407]
 [0.12783426 0.0064779  0.34756044]
 [0.12855829 0.00643416 0.3674595 ]
 [0.12946357 0.00642947 0.38613298]
 [0.13040434 0.00644884 0.4026741 ]
 [0.13124691 0.00647801 0.41614352]
 [0.13187685 0.00650479 0.42568217]
 [0.13221285 0.00652039 0.43063014]]","[[0.14520056 0.05259256 0.04127461]
 [0.14478022 0.05197975 0.04121958]
 [0.14382068 0.05078791 0.04110146]
 [0.14211787 0.0490797  0.04090826]
 [0.13943705 0.04693684 0.04062907]
 [0.13557981 0.04445011 0.04026509]
 [0.1304397  0.0417092  0.03983855]
 [0.12403876 0.03879532 0.03940134]
 [0.11653875 0.03577825 0.03904569]
 [0.10822078 0.03271647 0.03891229]
 [0.09945346 0.02966047 0.03920254]
 [0.09065114 0.02665751 0.04018243]
 [0.08223908 0.0237557  0.0421855 ]
 [0.0746309  0.02100684 0.0456082 ]
 [0.06822304 0.01846607 0.05088822]
 [0.06340337 0.01618971 0.05846578]
 [0.06056811 0.01423102 0.06872473]
 [0.06014132 0.01263549 0.08192071]
 [0.06258878 0.01143644 0.09810935]
 [0.06840796 0.01065044 0.11708158]
 [0.07810406 0.01027621 0.13833731]
 [0.09213582 0.01029438 0.16110844]
 [0.11084405 0.01066787 0.18443178]
 [0.13436842 0.01134384 0.20727972]
 [0.16256192 0.01225735 0.22872064]
 [0.19493119 0.01333576 0.24808675]
 [0.23061117 0.01450204 0.2651142 ]
 [0.2683942  0.01567998 0.28002833]
 [0.30681047 0.01679925 0.29355251]
 [0.34425683 0.01779904 0.30683314]
 [0.379153   0.01863195 0.32128945]
 [0.4100984  0.01926568 0.33840842]
 [0.43600473 0.01968356 0.3595066 ]
 [0.45617814 0.01988369 0.38549997]
 [0.47034136 0.01987688 0.4167029 ]
 [0.47859967 0.0196837  0.4526981 ]
 [0.48135884 0.01933145 0.49229261]
 [0.47922074 0.01885102 0.53357688]
 [0.47287592 0.01827444 0.57408479]
 [0.46301285 0.01763137 0.61104185]
 [0.45026116 0.01694765 0.64166595]
 [0.43516486 0.01624319 0.66347931]
 [0.41818411 0.01553122 0.67459001]
 [0.39972073 0.01481894 0.67389423]
 [0.38014669 0.01410827 0.66118422]
 [0.35983177 0.01339841 0.63714416]
 [0.33915785 0.01268758 0.60324146]
 [0.3185215  0.01197549 0.56154575]
 [0.29831802 0.01126503 0.51450128]
 [0.27892102 0.0105627  0.46468364]
 [0.26065691 0.00987827 0.4145769 ]
 [0.24378016 0.00922377 0.36638445]
 [0.22845983 0.0086115  0.32189987]
 [0.21477459 0.00805226 0.28242701]
 [0.20271863 0.00755392 0.24875628]
 [0.19221741 0.00712093 0.22119246]
 [0.18314899 0.00675423 0.19961575]
 [0.17536432 0.00645206 0.18357093]
 [0.16870723 0.00621114 0.17236544]
 [0.16302863 0.00602818 0.16517071]
 [0.15819836 0.00590132 0.16112016]
 [0.15410467 0.00583014 0.15938444]
 [0.15065656 0.00581604 0.15923146]
 [0.14777977 0.00586146 0.16006687]
 [0.14540973 0.0059685  0.1614463 ]
 [0.14348981 0.00613784 0.16307337]
 [0.14196437 0.00636728 0.16477765]
 [0.14077559 0.0066512  0.16648402]
 [0.13986004 0.00697985 0.16817829]
 [0.13914414 0.00734027 0.16987168]
 [0.13854343 0.00771727 0.1715761 ]
 [0.1379639  0.00809477 0.17328653]
 [0.13730265 0.00845722 0.17497424]
 [0.13645972 0.00879154 0.17659324]
 [0.13534617 0.00908787 0.17808601]
 [0.13389866 0.00934021 0.17939938]
 [0.13208499 0.00954625 0.18049113]
 [0.1299111  0.00970643 0.18133793]
 [0.12742051 0.00982307 0.18193851]
 [0.12468557 0.00989864 0.18231082]
 [0.12179835 0.00993533 0.18248749]
 [0.11885504 0.00993399 0.18251082]
 [0.11594438 0.00989446 0.18242844]
 [0.11314221 0.00981627 0.18229097]
 [0.11050394 0.00969931 0.18215337]
 [0.10806593 0.00954499 0.18207559]
 [0.10584885 0.00935657 0.18212593]
 [0.10385759 0.00913974 0.18238296]
 [0.10208532 0.00890208 0.18293252]
 [0.10051313 0.0086523  0.18385982]
 [0.09911436 0.00839965 0.1852385 ]
 [0.09785835 0.0081529  0.18711326]
 [0.09671418 0.00791987 0.18948257]
 [0.0956584  0.0077067  0.19228279]
 [0.09467974 0.00751821 0.19537898]
 [0.09378543 0.00735787 0.19856846]
 [0.09299868 0.00722793 0.20159702]
 [0.0923549  0.00712967 0.20418955]
 [0.09189595 0.00706388 0.20608777]
 [0.09165645 0.00703096 0.20709185]]","[[0.02684973 0.00193316 0.03333269]
 [0.02687629 0.00192981 0.0335539 ]
 [0.02692236 0.00192584 0.03398612]
 [0.02697656 0.00192667 0.03461348]
 [0.02702286 0.00193929 0.03541505]
 [0.02704744 0.00197192 0.03638054]
 [0.02704244 0.00203314 0.03752187]
 [0.02700941 0.00213131 0.03889214]
 [0.02696725 0.00227478 0.04060854]
 [0.02695587 0.00247203 0.04287093]
 [0.02704542 0.00273391 0.04598859]
 [0.0273436  0.0030748  0.05039573]
 [0.02800449 0.0035149  0.05666257]
 [0.02923903 0.00408238 0.06548907]
 [0.03132315 0.0048137  0.07767748]
 [0.03460082 0.00575248 0.09408247]
 [0.0394809  0.00694797 0.11552887]
 [0.04642656 0.00845062 0.14270493]
 [0.05593054 0.01030506 0.17603217]
 [0.0684739  0.0125421  0.21553182]
 [0.08447435 0.01517097 0.26070445]
 [0.10421802 0.01817266 0.31045376]
 [0.12778972 0.02149631 0.36306066]
 [0.15501113 0.02506009 0.41624593]
 [0.18539434 0.02875558 0.4673385 ]
 [0.21813234 0.03245698 0.51351965]
 [0.25212822 0.03603174 0.55213538]
 [0.28606673 0.03935127 0.58103834]
 [0.31852409 0.04229996 0.59890591]
 [0.34809588 0.04478039 0.60548285]
 [0.37353247 0.04671659 0.60170212]
 [0.39384652 0.04805433 0.58964997]
 [0.40839633 0.0487613  0.57237105]
 [0.41691694 0.0488281  0.55353558]
 [0.41950941 0.04826953 0.53700406]
 [0.4165952  0.04712702 0.52635995]
 [0.40884448 0.04546814 0.52447315]
 [0.39709448 0.04338392 0.53315847]
 [0.38227066 0.04098311 0.55298275]
 [0.36531168 0.03838248 0.5832388 ]
 [0.34711432 0.03569649 0.62209016]
 [0.32849083 0.03302768 0.66684947]
 [0.310139   0.03045917 0.71434712]
 [0.29262429 0.02805146 0.7613169 ]
 [0.27637084 0.02584278 0.80474682]
 [0.26166325 0.02385229 0.84213593]
 [0.24864716 0.02208531 0.87163616]
 [0.23734241 0.020537   0.8920804 ]
 [0.22766314 0.01919749 0.90291879]
 [0.21943624 0.01805342 0.90409934]
 [0.21243312 0.01708877 0.8959331 ]
 [0.20639762 0.01628479 0.87896863]
 [0.20107487 0.0156194  0.8539066 ]
 [0.19623913 0.0150675  0.82155175]
 [0.19170913 0.01460156 0.78280122]
 [0.18736111 0.01419371 0.73864892]
 [0.18313029 0.01381876 0.6901985 ]
 [0.17900618 0.01345508 0.6386633 ]
 [0.17502123 0.01308801 0.58535394]
 [0.17123917 0.01271179 0.53164238]
 [0.16774351 0.01232899 0.47890874]
 [0.16462499 0.01195002 0.42847372]
 [0.16197365 0.01158955 0.38153048]
 [0.15986939 0.01126432 0.33908746]
 [0.1583727  0.01098968 0.30191867]
 [0.15752054 0.01077729 0.27052674]
 [0.15731675 0.01063426 0.24514423]
 [0.157728   0.01056246 0.22574605]
 [0.15868747 0.01056067 0.2120803 ]
 [0.1600955  0.01062615 0.20370876]
 [0.16182896 0.0107564  0.20005036]
 [0.16375139 0.01095019 0.20042544]
 [0.16572738 0.0112073  0.20409844]
 [0.16762734 0.01152741 0.21031829]
 [0.16933801 0.01190776 0.21835159]
 [0.17076719 0.01234059 0.22751849]
 [0.17184046 0.01281153 0.23721643]
 [0.17250224 0.01329869 0.24693992]
 [0.17270805 0.0137738  0.25629248]
 [0.17242333 0.01420397 0.26498257]
 [0.17162275 0.01455492 0.27281793]
 [0.17028802 0.01479492 0.27968891]
 [0.16841228 0.01489785 0.28554778]
 [0.16600612 0.01484676 0.29039268]
 [0.16310904 0.01463571 0.29425206]
 [0.15979267 0.01427108 0.29717451]
 [0.15616585 0.01377151 0.29922839]
 [0.15237041 0.0131664  0.30049819]
 [0.14856966 0.0124938  0.30108889]
 [0.14492959 0.01179586 0.30112274]
 [0.14160066 0.01111531 0.30073519]
 [0.13869481 0.01049039 0.30006798]
 [0.13627541 0.00995084 0.29925785]
 [0.13435652 0.00951526 0.29842422]
 [0.13290449 0.00918875 0.2976579 ]
 [0.13185684 0.00896457 0.29701694]
 [0.1311372  0.00882608 0.29652745]
 [0.13067124 0.00875102 0.29618735]
 [0.13039669 0.00871691 0.2959796 ]
 [0.13027027 0.00870496 0.29588284]]","[[0.02551612 0.00704139 0.01234236]
 [0.0255158  0.00710164 0.01233334]
 [0.02552471 0.00722142 0.01233194]
 [0.02556337 0.00739875 0.01237236]
 [0.02565643 0.0076297  0.01250717]
 [0.02583778 0.0079081  0.01281142]
 [0.02614836 0.00822583 0.01339849]
 [0.0266323  0.00857363 0.0144371 ]
 [0.0273513  0.00894412 0.01618047]
 [0.02839417 0.00933441 0.01899996]
 [0.02988708 0.00974926 0.0234157 ]
 [0.03200842 0.01020341 0.0301155 ]
 [0.03499694 0.01072335 0.03995336]
 [0.03915677 0.01134655 0.05390855]
 [0.04484902 0.0121186  0.07299869]
 [0.05247193 0.01308754 0.09814096]
 [0.06242253 0.01429647 0.12996889]
 [0.07504504 0.01577456 0.1686276 ]
 [0.09056538 0.0175281  0.21358193]
 [0.10902473 0.01953414 0.26348741]
 [0.13021674 0.02173707 0.31616717]
 [0.15365035 0.02405056 0.36873065]
 [0.17854139 0.02636421 0.41783622]
 [0.20385182 0.02855526 0.46007414]
 [0.22837198 0.03050224 0.49240725]
 [0.25084211 0.03209878 0.51258896]
 [0.27009265 0.03326513 0.51947502]
 [0.285186   0.03395561 0.51316851]
 [0.29552651 0.03415975 0.49496204]
 [0.30092558 0.03390034 0.46710274]
 [0.30160454 0.03322662 0.43242772]
 [0.29814099 0.03220576 0.39395065]
 [0.29136939 0.03091489 0.35448079]
 [0.28225197 0.02943264 0.31633517]
 [0.27175366 0.02783361 0.28118143]
 [0.26073332 0.02618436 0.25001088]
 [0.2498698  0.02454113 0.22321397]
 [0.2396292  0.02294935 0.2007254 ]
 [0.23026773 0.02144389 0.18218826]
 [0.22186573 0.02005017 0.16710359]
 [0.21437535 0.01878559 0.15494453]
 [0.20767764 0.01766017 0.14522536]
 [0.20162907 0.01667828 0.13753552]
 [0.19609744 0.01583813 0.13153935]
 [0.19098303 0.01513309 0.12696335]
 [0.18622656 0.01455101 0.12357677]
 [0.18180503 0.01407532 0.12117808]
 [0.17772577 0.01368603 0.11958684]
 [0.17402187 0.01336186 0.11864771]
 [0.17073139 0.01308212 0.11823231]
 [0.16789269 0.01282981 0.11824405]
 [0.16553567 0.01259353 0.11861816]
 [0.16367494 0.01236885 0.11931755]
 [0.1623077  0.01215794 0.12031639]
 [0.16140656 0.01196878 0.12158808]
 [0.16092446 0.0118133  0.12308934]
 [0.16079912 0.01170457 0.12474842]
 [0.16096431 0.01165403 0.12646439]
 [0.16135856 0.01166953 0.12811035]
 [0.16193587 0.01175389 0.12954878]
 [0.16266792 0.01190402 0.13064795]
 [0.16354291 0.01211157 0.13129974]
 [0.16455205 0.01236349 0.1314346 ]
 [0.1656772  0.01264343 0.13103342]
 [0.16687058 0.01293226 0.1301311 ]
 [0.16804061 0.01320953 0.12881305]
 [0.16904648 0.01345427 0.12720813]
 [0.16970577 0.0136459  0.12547306]
 [0.16980963 0.01376545 0.12377521]
 [0.16915811 0.01379804 0.12227541]
 [0.16759152 0.01373374 0.12110927]
 [0.16502546 0.01356929 0.12037207]
 [0.16147374 0.01330962 0.12011103]
 [0.15705551 0.01296678 0.1203207 ]
 [0.15198813 0.01255946 0.12094636]
 [0.14655596 0.01211014 0.12188911]
 [0.14107481 0.01164227 0.12301972]
 [0.13584634 0.0111775  0.12419378]
 [0.13112115 0.01073392 0.12526653]
 [0.12707195 0.01032512 0.1261103 ]
 [0.12377936 0.0099603  0.12663273]
 [0.12123544 0.00964548 0.12678992]
 [0.11935553 0.00938473 0.12659411]
 [0.11800272 0.00918048 0.12611461]
 [0.11700866 0.00903424 0.12547323]
 [0.11619909 0.00894546 0.12482865]
 [0.11541111 0.00891122 0.12435628]
 [0.11450397 0.00892507 0.12422608]
 [0.11337069 0.00897661 0.12457701]
 [0.11194139 0.00905244 0.12549983]
 [0.11018825 0.00913708 0.12702416]
 [0.10812592 0.00921519 0.12911551]
 [0.10581306 0.00927428 0.13167869]
 [0.10334191 0.00930611 0.13456622]
 [0.10083464 0.00930838 0.13759304]
 [0.09843407 0.00928472 0.14055274]
 [0.09628751 0.00924379 0.14323435]
 [0.09453479 0.00919733 0.1454431 ]
 [0.09329432 0.00915776 0.14701483]
 [0.09265163 0.00913513 0.14783168]]","[[0.02046336 0.00591194 0.01906779]
 [0.02042906 0.00591637 0.01937161]
 [0.02039491 0.00592879 0.02008518]
 [0.0204328  0.00595542 0.02142731]
 [0.02065851 0.00600555 0.02374332]
 [0.02123504 0.00609046 0.02751093]
 [0.02237631 0.00622358 0.03333696]
 [0.02435634 0.00642059 0.04194189]
 [0.02751348 0.00670033 0.05411373]
 [0.03224557 0.00708536 0.07062988]
 [0.03899907 0.00760165 0.09214151]
 [0.04824239 0.00827705 0.1190323 ]
 [0.06041695 0.00913822 0.15126264]
 [0.07587735 0.01020538 0.18823472]
 [0.09481515 0.01148611 0.22871417]
 [0.11718289 0.01296898 0.270834  ]
 [0.14263368 0.01461836 0.31221229]
 [0.17049167 0.01637314 0.35017647]
 [0.19976926 0.01814901 0.38207387]
 [0.22924209 0.01984608 0.40561938]
 [0.25756882 0.02136074 0.41921021]
 [0.28344411 0.02259859 0.42215165]
 [0.30575795 0.02348803 0.41474213]
 [0.32372438 0.02399033 0.3982038 ]
 [0.33696063 0.0241035  0.37447316]
 [0.34549685 0.02386107 0.345905  ]
 [0.34972514 0.02332459 0.31494443]
 [0.35029805 0.02257253 0.28383351]
 [0.34800407 0.02168799 0.25439813]
 [0.3436479  0.02074711 0.22793306]
 [0.33795538 0.01981111 0.20518837]
 [0.33151526 0.01892185 0.18643152]
 [0.32475531 0.0181009  0.17155198]
 [0.31794887 0.01735299 0.16018338]
 [0.31124048 0.01667031 0.15181369]
 [0.3046793  0.01603831 0.14587316]
 [0.29824984 0.01544151 0.1417976 ]
 [0.29190082 0.0148674  0.13906478]
 [0.28557143 0.01430991 0.13721974]
 [0.2792077  0.01377061 0.13588704]
 [0.27277963 0.01325771 0.13478277]
 [0.26629275 0.01278466 0.13372081]
 [0.25978794 0.01236651 0.13261337]
 [0.25334946 0.01201748 0.1314634 ]
 [0.24707782 0.01174818 0.13034705]
 [0.24106998 0.01156289 0.12938659]
 [0.23540171 0.01146033 0.12871972]
 [0.23010849 0.01143343 0.12846486]
 [0.22517491 0.01147161 0.12868743]
 [0.22053629 0.01156195 0.12938404]
 [0.21609874 0.01169169 0.13047996]
 [0.21176176 0.01184989 0.131845  ]
 [0.20744433 0.0120277  0.1333174 ]
 [0.20311064 0.01221893 0.13473788]
 [0.19877176 0.012419   0.13597933]
 [0.1944874  0.01262357 0.13696531]
 [0.19034493 0.01282741 0.13768251]
 [0.18643567 0.01302316 0.13816913]
 [0.18283336 0.01320078 0.13850281]
 [0.17957609 0.01334869 0.13877693]
 [0.17665893 0.01345455 0.13907571]
 [0.17404206 0.01350818 0.13946213]
 [0.17166288 0.01350293 0.13996075]
 [0.16945483 0.01343815 0.14056104]
 [0.16736389 0.01331991 0.14122221]
 [0.1653577  0.01316068 0.14188286]
 [0.16342976 0.01297798 0.14247013]
 [0.16158988 0.01279178 0.14290923]
 [0.15985455 0.01262187 0.14313616]
 [0.15823275 0.01248543 0.14310096]
 [0.15671823 0.01239482 0.14277293]
 [0.15528467 0.01235631 0.14214539]
 [0.15389074 0.01236927 0.14123533]
 [0.15249084 0.01242689 0.1400814 ]
 [0.15104651 0.01251641 0.13874012]
 [0.14953646 0.01262052 0.13727684]
 [0.14795987 0.0127189  0.13575847]
 [0.14633796 0.01279027 0.13424169]
 [0.1447062  0.01281527 0.13277122]
 [0.14310416 0.01277841 0.13137404]
 [0.14156723 0.01267029 0.13006315]
 [0.14011789 0.01248931 0.12884076]
 [0.13876293 0.0122418  0.12770508]
 [0.13749413 0.01194133 0.12665624]
 [0.13629392 0.01160641 0.12569796]
 [0.13513973 0.01125757 0.12484479]
 [0.1340146  0.01091498 0.12411776]
 [0.13291003 0.0105952  0.12354541]
 [0.1318309  0.0103101  0.12315648]
 [0.13079588 0.01006563 0.12297855]
 [0.12983564 0.009863   0.12303066]
 [0.12898674 0.00969941 0.12331468]
 [0.12828174 0.00956988 0.1238122 ]
 [0.12774416 0.00946856 0.12448565]
 [0.1273788  0.00938971 0.12527505]
 [0.12717249 0.00932875 0.12610608]
 [0.12709104 0.00928247 0.12689839]
 [0.12708967 0.00924883 0.12757342]
 [0.12712215 0.00922688 0.12806543]
 [0.12714916 0.00921593 0.12832383]]","[[0.03111035 0.00782568 0.02675853]
 [0.03118601 0.00819701 0.02671591]
 [0.03132975 0.00892296 0.02663815]
 [0.03152747 0.00996805 0.02653988]
 [0.03175951 0.0112733  0.02643947]
 [0.03200331 0.0127542  0.02635762]
 [0.03223488 0.01430096 0.02631398]
 [0.03243094 0.01578435 0.02632616]
 [0.03257046 0.01706778 0.02640895]
 [0.03263529 0.01802239 0.02657342]
 [0.03261124 0.01854521 0.02682849]
 [0.03248822 0.01857388 0.02718025]
 [0.0322605  0.01809589 0.02763279]
 [0.03192747 0.01715005 0.02818895]
 [0.03149288 0.01581934 0.02884855]
 [0.03096655 0.01421788 0.02960995]
 [0.03036369 0.01247314 0.03046861]
 [0.02970465 0.01070824 0.03141728]
 [0.02901406 0.00902845 0.03244683]
 [0.02831911 0.00751134 0.03354529]
 [0.02765049 0.00620512 0.03470059]
 [0.02703938 0.00513033 0.03590001]
 [0.02651692 0.00428617 0.03713529]
 [0.02611713 0.0036592  0.0384101 ]
 [0.02587997 0.00323013 0.03974624]
 [0.02585741 0.00298156 0.04119377]
 [0.02612552 0.00290155 0.04283834]
 [0.02679562 0.00298587 0.04481302]
 [0.02803239 0.00323816 0.04730884]
 [0.03007239 0.00366732 0.0505817 ]
 [0.03323682 0.00428512 0.05495641]
 [0.03793965 0.00510205 0.06082349]
 [0.04467687 0.0061229  0.06863454]
 [0.05399991 0.00734274 0.07888917]
 [0.06645831 0.00874272 0.09211839]
 [0.08252633 0.01028944 0.10886643]
 [0.10250455 0.01193347 0.12966909]
 [0.12642371 0.01361192 0.15503012]
 [0.1539615  0.01525286 0.18539033]
 [0.18439595 0.01678122 0.2210872 ]
 [0.21661752 0.01812715 0.26230235]
 [0.24920167 0.01923369 0.30899809]
 [0.28054424 0.02006292 0.36085299]
 [0.30903877 0.02060118 0.41720507]
 [0.33326677 0.02085939 0.4770319 ]
 [0.35216559 0.02087209 0.53897183]
 [0.36514424 0.02069161 0.60139508]
 [0.37212257 0.02038091 0.66252345]
 [0.37349243 0.02000579 0.72057627]
 [0.37000926 0.01962592 0.77391929]
 [0.36264812 0.01928857 0.82118733]
 [0.35244681 0.0190236  0.86135167]
 [0.34037373 0.01884153 0.89372798]
 [0.3272415  0.01873463 0.91792315]
 [0.3136709  0.01867965 0.93374418]
 [0.30009877 0.01864445 0.94109668]
 [0.286819   0.01859341 0.93989704]
 [0.27403632 0.01849414 0.93003808]
 [0.2619096  0.01832299 0.91140847]
 [0.25057659 0.01806792 0.88397223]
 [0.24015978 0.01772961 0.84788545]
 [0.23074954 0.01731998 0.80362198]
 [0.22238581 0.01685862 0.75207798]
 [0.21503772 0.01636907 0.69461702]
 [0.20859843 0.01587349 0.63304257]
 [0.20289786 0.01538975 0.56949989]
 [0.19772905 0.01492809 0.50631274]
 [0.1928837  0.01449065 0.44579239]
 [0.18818621 0.01407178 0.39004491]
 [0.1835168  0.01365935 0.34081456]
 [0.17881816 0.01323773 0.2993844 ]
 [0.17408994 0.01279059 0.26654385]
 [0.16936527 0.01230356 0.24261747]
 [0.1646898  0.01176739 0.22754016]
 [0.16009724 0.01117999 0.22095865]
 [0.15559914 0.01054804 0.22233514]
 [0.15117971 0.00988653 0.23103725]
 [0.14680889 0.00921814 0.24639997]
 [0.14245452 0.0085708  0.26775586]
 [0.13809909 0.00797461 0.29443928]
 [0.13375072 0.00745835 0.32576609]
 [0.12944521 0.00704543 0.36100174]
 [0.125243   0.00675074 0.39932706]
 [0.12121749 0.00657875 0.43980991]
 [0.11744088 0.00652192 0.48139688]
 [0.11396947 0.00656215 0.522918  ]
 [0.11083387 0.00667204 0.56312285]
 [0.1080334  0.00681884 0.60074268]
 [0.10553975 0.00696845 0.63457447]
 [0.10330449 0.00708882 0.66358005]
 [0.10127466 0.00715507 0.68699163]
 [0.0994029  0.0071515  0.70440328]
 [0.09766093 0.00707321 0.71583886]
 [0.09604187 0.00692646 0.72177087]
 [0.09456039 0.00672731 0.72308891]
 [0.09324505 0.00649946 0.72101048]
 [0.09213428 0.00627032 0.71694609]
 [0.09126538 0.00606798 0.71233111]
 [0.09066778 0.0059175  0.70844439]
 [0.09036329 0.00583722 0.70624483]]","[[0.02844227 0.0054358  0.02721853]
 [0.02837161 0.00541399 0.02734968]
 [0.02823783 0.00536943 0.02760822]
 [0.02805411 0.00530073 0.02798523]
 [0.02783768 0.00520706 0.02846911]
 [0.02760479 0.00508864 0.02904442]
 [0.02736968 0.00494774 0.02969818]
 [0.02714001 0.0047883  0.03042216]
 [0.02691742 0.00461538 0.03122461]
 [0.02669929 0.00443474 0.03214568]
 [0.02648035 0.00425174 0.03328078]
 [0.02625895 0.00407125 0.03480667]
 [0.02604327 0.00389755 0.03701083]
 [0.02586083 0.00373469 0.04032077]
 [0.02576613 0.00358748 0.04532367]
 [0.02585071 0.00346175 0.05276941]
 [0.02625326 0.00336558 0.06354634]
 [0.02716252 0.00330914 0.07862299]
 [0.02882091 0.00330452 0.09894881]
 [0.03152323 0.00336539 0.12531981]
 [0.03560543 0.00350548 0.15821423]
 [0.04143364 0.00373776 0.19762543]
 [0.04937539 0.00407248 0.24292208]
 [0.05977154 0.00451497 0.2927671 ]
 [0.0729036  0.00506507 0.34513205]
 [0.08895856 0.00571483 0.39743024]
 [0.10800304 0.00644946 0.44676092]
 [0.12996061 0.00724748 0.49024697]
 [0.15460142 0.00808296 0.52542244]
 [0.18154582 0.00892895 0.55060618]
 [0.21027956 0.00976057 0.56519648]
 [0.24017666 0.01055882 0.56982949]
 [0.27052794 0.01131306 0.56636202]
 [0.30057077 0.0120221  0.5576731 ]
 [0.32951857 0.0126933  0.54730485]
 [0.35657822 0.01333976 0.5389962 ]
 [0.38097462 0.01397644 0.53618272]
 [0.40196371 0.01461531 0.541539  ]
 [0.41885412 0.01526056 0.55664451]
 [0.43103667 0.01590632 0.58181422]
 [0.43801766 0.01653534 0.61612524]
 [0.43946765 0.01712091 0.65762131]
 [0.43527109 0.0176305  0.70364745]
 [0.42557397 0.01803145 0.75125155]
 [0.41081009 0.01829711 0.79757078]
 [0.39170307 0.01841209 0.84014394]
 [0.36923362 0.0183758  0.87709994]
 [0.34456653 0.018203   0.90721593]
 [0.31895488 0.01792195 0.92985811]
 [0.29362682 0.01756954 0.94483995]
 [0.26967418 0.01718447 0.95225155]
 [0.24797098 0.01680123 0.95229802]
 [0.22911419 0.01644459 0.94519129]
 [0.21340991 0.01612681 0.93109815]
 [0.20088776 0.01584781 0.91015081]
 [0.19135043 0.01559723 0.88250241]
 [0.18442826 0.0153596  0.84840511]
 [0.17964527 0.01511858 0.80828488]
 [0.17647953 0.01486159 0.76279552]
 [0.17441098 0.01458196 0.71283545]
 [0.17295933 0.01427949 0.65952744]
 [0.17171439 0.01395926 0.60416722]
 [0.17035204 0.01362937 0.54814366]
 [0.16865064 0.01329845 0.49284933]
 [0.16649351 0.01297443 0.43959403]
 [0.16385802 0.01266243 0.389524  ]
 [0.16080878 0.01236594 0.34355842]
 [0.15747568 0.01208691 0.30235687]
 [0.15402994 0.01182706 0.26630703]
 [0.150658   0.01158825 0.23553754]
 [0.14753178 0.0113725  0.20995113]
 [0.1447907  0.01118214 0.18927525]
 [0.14252815 0.01101892 0.1731176 ]
 [0.14078495 0.01088316 0.16102589]
 [0.13955318 0.01077316 0.15253509]
 [0.13878228 0.01068467 0.14720417]
 [0.13839408 0.01061044 0.14463891]
 [0.13828575 0.01054037 0.14450027]
 [0.13834628 0.01046222 0.14650536]
 [0.13845632 0.01036262 0.15042041]
 [0.13849655 0.01022816 0.15605777]
 [0.13835836 0.01004744 0.16326839]
 [0.13795043 0.00981269 0.17193865]
 [0.13721667 0.00952192 0.18198561]
 [0.13614417 0.00917963 0.19335085]
 [0.13477619 0.00879711 0.20599766]
 [0.13320862 0.00839155 0.21990076]
 [0.13157961 0.00798408 0.23504257]
 [0.13004848 0.00759678 0.25140029]
 [0.12877021 0.00724987 0.26892994]
 [0.12786845 0.00695887 0.28754295]
 [0.12741533 0.00673299 0.30707008]
 [0.12742044 0.00657422 0.32722407]
 [0.12783426 0.0064779  0.34756044]
 [0.12855829 0.00643416 0.3674595 ]
 [0.12946357 0.00642947 0.38613298]
 [0.13040434 0.00644884 0.4026741 ]
 [0.13124691 0.00647801 0.41614352]
 [0.13187685 0.00650479 0.42568217]
 [0.13221285 0.00652039 0.43063014]]","[[0.02201643 0.00463947 0.03846436]
 [0.02196143 0.00458514 0.03850054]
 [0.02186048 0.00448108 0.03858118]
 [0.02173112 0.00433672 0.03871995]
 [0.02159819 0.00416483 0.03893663]
 [0.02149765 0.00398131 0.03925669]
 [0.02147748 0.00380439 0.03971532]
 [0.02160384 0.00365486 0.04036109]
 [0.02196812 0.00355588 0.04126435]
 [0.02269343 0.00353396 0.04252798]
 [0.02394108 0.0036184  0.04429475]
 [0.02591337 0.00384151 0.04675469]
 [0.02885026 0.00423681 0.05014355]
 [0.03301548 0.00483659 0.05473714]
 [0.03866951 0.00566811 0.06083031]
 [0.04603661 0.00674909 0.06871497]
 [0.05526137 0.00808298 0.07865177]
 [0.06636618 0.00965479 0.09084467]
 [0.07921881 0.01142879 0.10542521]
 [0.09351598 0.01334822 0.12244775]
 [0.10878907 0.01533828 0.14189754]
 [0.12443932 0.01731085 0.16370134]
 [0.13979348 0.01917214 0.18774117]
 [0.15417437 0.02083163 0.21385448]
 [0.16697408 0.02221037 0.24181932]
 [0.17771698 0.02324878 0.2713245 ]
 [0.18610334 0.02391152 0.30193438]
 [0.19202897 0.02419048 0.33306191]
 [0.19558138 0.02410419 0.36396494]
 [0.19701442 0.02369451 0.39377513]
 [0.19670853 0.02302189 0.42155953]
 [0.19512373 0.0221584  0.44641234]
 [0.19274973 0.02118107 0.46754628]
 [0.19005696 0.02016482 0.4843766 ]
 [0.1874528  0.01917671 0.49657354]
 [0.18524616 0.01827151 0.50407073]
 [0.18362524 0.01748876 0.507035  ]
 [0.18264892 0.01685214 0.50580863]
 [0.18225307 0.01636949 0.50083398]
 [0.18227588 0.01603457 0.49258193]
 [0.18249092 0.01582997 0.4814961 ]
 [0.18264872 0.01572934 0.46796162]
 [0.18251543 0.01570187 0.45229927]
 [0.18190405 0.01571458 0.43477981]
 [0.1806961  0.01573553 0.41565043]
 [0.17885193 0.01573654 0.39516368]
 [0.17640484 0.01569456 0.37360136]
 [0.17344812 0.01559343 0.35129098]
 [0.17011573 0.01542414 0.32861004]
 [0.16656232 0.01518547 0.30597978]
 [0.16294418 0.01488302 0.28384993]
 [0.1594021  0.01452891 0.26268137]
 [0.15605015 0.0141398  0.24292456]
 [0.15296826 0.0137354  0.22499992]
 [0.15020614 0.01333607 0.20927765]
 [0.14778347 0.01296015 0.19606062]
 [0.14569333 0.01262179 0.18556514]
 [0.14391377 0.01232944 0.17790568]
 [0.14241191 0.01208484 0.17308361]
 [0.14115264 0.0118837  0.17098317]
 [0.14010757 0.01171692 0.17137639]
 [0.13926199 0.01157265 0.17393842]
 [0.13861791 0.01143908 0.17827664]
 [0.13819643 0.01130629 0.18395984]
 [0.13803213 0.01116728 0.19055302]
 [0.13816085 0.0110188  0.19764817]
 [0.13860562 0.01086081 0.20488534]
 [0.13935882 0.01069593 0.21196457]
 [0.14036737 0.01052784 0.21864806]
 [0.14152725 0.01036022 0.22475349]
 [0.14268781 0.01019624 0.23014577]
 [0.14366506 0.01003746 0.23472648]
 [0.14426859 0.00988401 0.23842366]
 [0.14433194 0.00973455 0.24118898]
 [0.14374095 0.00958682 0.24299207]
 [0.1424559  0.00943828 0.24382014]
 [0.14052348 0.00928676 0.24367993]
 [0.13807273 0.00913136 0.24259908]
 [0.13529989 0.00897273 0.24062505]
 [0.13244475 0.00881353 0.23782985]
 [0.12975672 0.00865858 0.23430915]
 [0.12746565 0.00851401 0.23018124]
 [0.12575513 0.00838655 0.22558568]
 [0.1247429  0.00828204 0.22067548]
 [0.12447281 0.00820462 0.21561305]
 [0.12491537 0.00815502 0.21056202]
 [0.12597556 0.00813017 0.20568063]
 [0.1275105  0.00812311 0.20111607]
 [0.12935292 0.0081236  0.19699869]
 [0.13132978 0.00811954 0.19343945]
 [0.13328144 0.00809902 0.19052299]
 [0.13508075 0.00805244 0.18830233]
 [0.13664184 0.00797458 0.18679106]
 [0.13792001 0.00786533 0.18595554]
 [0.13890972 0.00773083 0.18571109]
 [0.13963287 0.00758231 0.18592313]
 [0.14013055 0.00743484 0.18642137]
 [0.14045073 0.00730503 0.18701692]
 [0.14063636 0.00720835 0.18753224]
 [0.14072062 0.0071568  0.18782841]]","[[0.02684973 0.00193316 0.03333269]
 [0.02687629 0.00192981 0.0335539 ]
 [0.02692236 0.00192584 0.03398612]
 [0.02697656 0.00192667 0.03461348]
 [0.02702286 0.00193929 0.03541505]
 [0.02704744 0.00197192 0.03638054]
 [0.02704244 0.00203314 0.03752187]
 [0.02700941 0.00213131 0.03889214]
 [0.02696725 0.00227478 0.04060854]
 [0.02695587 0.00247203 0.04287093]
 [0.02704542 0.00273391 0.04598859]
 [0.0273436  0.0030748  0.05039573]
 [0.02800449 0.0035149  0.05666257]
 [0.02923903 0.00408238 0.06548907]
 [0.03132315 0.0048137  0.07767748]
 [0.03460082 0.00575248 0.09408247]
 [0.0394809  0.00694797 0.11552887]
 [0.04642656 0.00845062 0.14270493]
 [0.05593054 0.01030506 0.17603217]
 [0.0684739  0.0125421  0.21553182]
 [0.08447435 0.01517097 0.26070445]
 [0.10421802 0.01817266 0.31045376]
 [0.12778972 0.02149631 0.36306066]
 [0.15501113 0.02506009 0.41624593]
 [0.18539434 0.02875558 0.4673385 ]
 [0.21813234 0.03245698 0.51351965]
 [0.25212822 0.03603174 0.55213538]
 [0.28606673 0.03935127 0.58103834]
 [0.31852409 0.04229996 0.59890591]
 [0.34809588 0.04478039 0.60548285]
 [0.37353247 0.04671659 0.60170212]
 [0.39384652 0.04805433 0.58964997]
 [0.40839633 0.0487613  0.57237105]
 [0.41691694 0.0488281  0.55353558]
 [0.41950941 0.04826953 0.53700406]
 [0.4165952  0.04712702 0.52635995]
 [0.40884448 0.04546814 0.52447315]
 [0.39709448 0.04338392 0.53315847]
 [0.38227066 0.04098311 0.55298275]
 [0.36531168 0.03838248 0.5832388 ]
 [0.34711432 0.03569649 0.62209016]
 [0.32849083 0.03302768 0.66684947]
 [0.310139   0.03045917 0.71434712]
 [0.29262429 0.02805146 0.7613169 ]
 [0.27637084 0.02584278 0.80474682]
 [0.26166325 0.02385229 0.84213593]
 [0.24864716 0.02208531 0.87163616]
 [0.23734241 0.020537   0.8920804 ]
 [0.22766314 0.01919749 0.90291879]
 [0.21943624 0.01805342 0.90409934]
 [0.21243312 0.01708877 0.8959331 ]
 [0.20639762 0.01628479 0.87896863]
 [0.20107487 0.0156194  0.8539066 ]
 [0.19623913 0.0150675  0.82155175]
 [0.19170913 0.01460156 0.78280122]
 [0.18736111 0.01419371 0.73864892]
 [0.18313029 0.01381876 0.6901985 ]
 [0.17900618 0.01345508 0.6386633 ]
 [0.17502123 0.01308801 0.58535394]
 [0.17123917 0.01271179 0.53164238]
 [0.16774351 0.01232899 0.47890874]
 [0.16462499 0.01195002 0.42847372]
 [0.16197365 0.01158955 0.38153048]
