EMG1,EMG2,EMG3
139.0,113.0,108.0
140.0,114.0,108.0
142.0,112.0,107.0
143.0,116.0,111.0
142.0,115.0,114.0
139.0,114.0,113.0
139.0,114.0,115.0
136.0,112.0,118.0
144.0,118.0,123.0
142.0,116.0,123.0
135.0,113.0,118.0
136.0,113.0,119.0
136.0,111.0,119.0
142.0,114.0,127.0
141.0,112.0,152.0
147.0,111.0,261.0
162.0,113.0,481.0
251.0,114.0,760.0
370.0,117.0,1023.0
493.0,120.0,1023.0
538.0,124.0,1023.0
542.0,127.0,1023.0
560.0,128.0,972.0
592.0,132.0,883.0
622.0,130.0,806.0
672.0,135.0,772.0
683.0,135.0,707.0
725.0,133.0,673.0
720.0,130.0,596.0
738.0,125.0,550.0
750.0,128.0,498.0
761.0,127.0,447.0
772.0,125.0,391.0
717.0,131.0,350.0
728.0,128.0,310.0
736.0,129.0,283.0
723.0,128.0,247.0
746.0,126.0,254.0
744.0,132.0,216.0
741.0,130.0,209.0
725.0,132.0,211.0
697.0,130.0,225.0
705.0,129.0,215.0
665.0,128.0,217.0
615.0,128.0,198.0
626.0,126.0,187.0
592.0,125.0,189.0
575.0,125.0,212.0
598.0,123.0,200.0
540.0,123.0,192.0
520.0,124.0,207.0
475.0,120.0,211.0
482.0,122.0,215.0
428.0,123.0,198.0
393.0,120.0,198.0
375.0,122.0,198.0
332.0,118.0,196.0
352.0,121.0,202.0
308.0,123.0,210.0
306.0,122.0,225.0
299.0,122.0,230.0
306.0,121.0,203.0
311.0,119.0,196.0
289.0,130.0,197.0
290.0,122.0,201.0
290.0,120.0,201.0
264.0,118.0,200.0
259.0,117.0,198.0
249.0,117.0,194.0
255.0,117.0,197.0
264.0,121.0,202.0
233.0,119.0,203.0
222.0,120.0,211.0
227.0,122.0,209.0
264.0,119.0,206.0
273.0,126.0,220.0
247.0,119.0,226.0
241.0,117.0,218.0
257.0,116.0,216.0
233.0,116.0,197.0
233.0,119.0,214.0
235.0,117.0,214.0
241.0,115.0,182.0
245.0,118.0,173.0
218.0,114.0,207.0
240.0,119.0,216.0
200.0,115.0,199.0
201.0,118.0,206.0
216.0,117.0,205.0
238.0,117.0,173.0
239.0,120.0,177.0
193.0,118.0,177.0
253.0,120.0,179.0
229.0,118.0,196.0
208.0,114.0,185.0
209.0,116.0,185.0
228.0,114.0,172.0
230.0,114.0,183.0
230.0,117.0,202.0
227.0,111.0,217.0
357.0,121.0,197.0
365.0,120.0,181.0
371.0,121.0,168.0
363.0,119.0,149.0
368.0,117.0,136.0
362.0,117.0,128.0
371.0,119.0,127.0
376.0,122.0,125.0
363.0,118.0,123.0
366.0,117.0,124.0
357.0,120.0,122.0
360.0,123.0,129.0
359.0,119.0,126.0
338.0,116.0,125.0
341.0,116.0,134.0
331.0,118.0,152.0
346.0,118.0,206.0
405.0,121.0,246.0
437.0,123.0,351.0
448.0,136.0,507.0
370.0,148.0,568.0
336.0,164.0,1023.0
377.0,174.0,1023.0
403.0,177.0,1023.0
416.0,180.0,1023.0
455.0,179.0,1023.0
474.0,175.0,1023.0
439.0,169.0,1023.0
430.0,161.0,1023.0
393.0,157.0,1023.0
362.0,148.0,945.0
360.0,143.0,848.0
337.0,143.0,729.0
316.0,131.0,639.0
308.0,131.0,565.0
302.0,128.0,548.0
290.0,131.0,496.0
279.0,130.0,431.0
273.0,125.0,399.0
297.0,124.0,347.0
270.0,126.0,328.0
299.0,129.0,289.0
278.0,130.0,286.0
287.0,121.0,250.0
241.0,122.0,237.0
221.0,122.0,268.0
248.0,126.0,240.0
263.0,126.0,225.0
256.0,124.0,228.0
278.0,127.0,243.0
306.0,125.0,240.0
287.0,130.0,242.0
253.0,127.0,236.0
244.0,124.0,244.0
244.0,130.0,271.0
248.0,127.0,264.0
254.0,131.0,285.0
262.0,127.0,269.0
280.0,126.0,245.0
245.0,127.0,255.0
227.0,122.0,244.0
240.0,129.0,248.0
264.0,127.0,245.0
285.0,125.0,249.0
293.0,126.0,257.0
271.0,125.0,258.0
253.0,129.0,275.0
251.0,126.0,263.0
229.0,128.0,259.0
233.0,128.0,254.0
244.0,122.0,253.0
301.0,128.0,276.0
268.0,121.0,268.0
272.0,122.0,254.0
251.0,121.0,263.0
255.0,119.0,287.0
243.0,120.0,266.0
287.0,124.0,248.0
267.0,122.0,257.0
253.0,122.0,238.0
223.0,117.0,209.0
219.0,123.0,240.0
210.0,120.0,241.0
203.0,118.0,252.0
192.0,121.0,264.0
209.0,118.0,261.0
192.0,125.0,275.0
234.0,124.0,284.0
262.0,118.0,264.0
256.0,118.0,279.0
235.0,117.0,310.0
247.0,120.0,364.0
280.0,121.0,403.0
253.0,120.0,408.0
236.0,121.0,452.0
222.0,117.0,494.0
214.0,119.0,571.0
209.0,118.0,624.0
200.0,117.0,699.0
181.0,118.0,738.0
137.0,112.0,121.0
137.0,115.0,120.0
141.0,115.0,123.0
136.0,115.0,123.0
138.0,116.0,130.0
134.0,115.0,133.0
138.0,119.0,142.0
145.0,118.0,190.0
176.0,118.0,223.0
199.0,120.0,404.0
215.0,123.0,516.0
244.0,134.0,416.0
321.0,145.0,644.0
438.0,157.0,937.0
557.0,165.0,1023.0
592.0,167.0,1023.0
635.0,165.0,1023.0
573.0,162.0,1023.0
580.0,156.0,1023.0
516.0,157.0,1023.0
497.0,143.0,982.0
453.0,142.0,911.0
396.0,135.0,816.0
356.0,131.0,735.0
318.0,128.0,685.0
329.0,125.0,612.0
292.0,121.0,549.0
279.0,122.0,500.0
257.0,122.0,446.0
261.0,123.0,399.0
256.0,120.0,358.0
252.0,118.0,358.0
240.0,118.0,330.0
220.0,119.0,320.0
249.0,120.0,328.0
248.0,124.0,336.0
267.0,123.0,314.0
279.0,122.0,293.0
290.0,120.0,283.0
277.0,122.0,262.0
268.0,123.0,243.0
291.0,128.0,256.0
290.0,128.0,261.0
287.0,125.0,260.0
241.0,127.0,248.0
264.0,130.0,245.0
259.0,127.0,261.0
267.0,124.0,263.0
253.0,122.0,256.0
238.0,129.0,307.0
252.0,122.0,278.0
258.0,122.0,248.0
258.0,121.0,261.0
277.0,119.0,267.0
331.0,124.0,292.0
279.0,120.0,283.0
263.0,122.0,268.0
233.0,119.0,279.0
245.0,119.0,264.0
212.0,121.0,266.0
237.0,120.0,259.0
217.0,121.0,298.0
235.0,121.0,292.0
229.0,121.0,247.0
248.0,122.0,257.0
243.0,119.0,263.0
239.0,121.0,265.0
211.0,118.0,260.0
204.0,119.0,253.0
268.0,126.0,255.0
251.0,121.0,233.0
258.0,124.0,258.0
269.0,123.0,231.0
274.0,123.0,226.0
269.0,128.0,235.0
248.0,124.0,252.0
255.0,122.0,253.0
250.0,127.0,265.0
265.0,122.0,231.0
232.0,119.0,232.0
245.0,118.0,256.0
265.0,120.0,238.0
290.0,120.0,253.0
252.0,122.0,244.0
265.0,117.0,245.0
286.0,118.0,279.0
289.0,118.0,247.0
310.0,120.0,235.0
289.0,116.0,248.0
284.0,117.0,255.0
277.0,118.0,265.0
215.0,119.0,288.0
201.0,122.0,329.0
219.0,119.0,391.0
226.0,118.0,441.0
221.0,117.0,509.0
230.0,116.0,572.0
226.0,117.0,617.0
201.0,116.0,673.0
189.0,118.0,672.0
138.0,117.0,121.0
133.0,117.0,121.0
136.0,116.0,122.0
137.0,115.0,117.0
139.0,118.0,125.0
140.0,116.0,122.0
135.0,114.0,120.0
134.0,114.0,125.0
132.0,114.0,125.0
140.0,121.0,136.0
137.0,116.0,128.0
132.0,115.0,129.0
145.0,121.0,153.0
154.0,118.0,162.0
191.0,119.0,253.0
233.0,123.0,441.0
278.0,131.0,605.0
257.0,139.0,633.0
298.0,155.0,567.0
365.0,164.0,948.0
464.0,168.0,1023.0
507.0,166.0,1023.0
532.0,163.0,1023.0
524.0,157.0,1023.0
488.0,152.0,1023.0
489.0,146.0,1023.0
443.0,142.0,1023.0
391.0,134.0,1023.0
330.0,128.0,1023.0
332.0,131.0,948.0
276.0,127.0,847.0
259.0,126.0,756.0
252.0,126.0,679.0
266.0,124.0,595.0
246.0,124.0,526.0
221.0,125.0,478.0
247.0,130.0,458.0
236.0,130.0,421.0
221.0,127.0,380.0
266.0,131.0,352.0
309.0,129.0,347.0
275.0,127.0,351.0
280.0,128.0,319.0
239.0,128.0,309.0
218.0,123.0,328.0
218.0,121.0,330.0
242.0,121.0,295.0
259.0,121.0,269.0
222.0,122.0,261.0
256.0,125.0,271.0
264.0,120.0,261.0
272.0,124.0,276.0
247.0,122.0,260.0
267.0,124.0,266.0
255.0,122.0,279.0
280.0,122.0,260.0
241.0,119.0,282.0
243.0,120.0,260.0
257.0,117.0,233.0
240.0,123.0,243.0
238.0,119.0,227.0
231.0,120.0,226.0
229.0,120.0,227.0
246.0,122.0,233.0
254.0,124.0,265.0
255.0,122.0,269.0
211.0,122.0,250.0
235.0,125.0,259.0
233.0,124.0,258.0
234.0,122.0,260.0
243.0,120.0,274.0
239.0,121.0,251.0
214.0,118.0,251.0
233.0,117.0,266.0
218.0,118.0,283.0
212.0,117.0,254.0
221.0,119.0,258.0
229.0,122.0,263.0
222.0,122.0,255.0
236.0,125.0,277.0
237.0,119.0,281.0
223.0,119.0,300.0
200.0,120.0,351.0
207.0,120.0,446.0
197.0,119.0,563.0
179.0,120.0,657.0
203.0,118.0,700.0
181.0,117.0,722.0
158.0,116.0,734.0
152.0,114.0,733.0
143.0,115.0,746.0
168.0,117.0,709.0
166.0,144.0,683.0
166.0,219.0,651.0
184.0,282.0,628.0
189.0,272.0,644.0
170.0,206.0,643.0
164.0,173.0,628.0
160.0,164.0,619.0
151.0,168.0,570.0
128.0,118.0,123.0
132.0,121.0,127.0
129.0,117.0,120.0
129.0,118.0,119.0
129.0,117.0,119.0
127.0,113.0,115.0
131.0,118.0,118.0
128.0,116.0,117.0
128.0,115.0,119.0
129.0,115.0,121.0
126.0,113.0,118.0
133.0,120.0,124.0
126.0,114.0,119.0
129.0,117.0,121.0
129.0,119.0,122.0
125.0,116.0,116.0
132.0,120.0,126.0
128.0,115.0,124.0
130.0,117.0,123.0
129.0,117.0,122.0
127.0,114.0,117.0
129.0,116.0,120.0
127.0,114.0,121.0
128.0,114.0,118.0
127.0,115.0,121.0
126.0,112.0,119.0
128.0,115.0,121.0
133.0,125.0,174.0
150.0,128.0,206.0
191.0,131.0,299.0
221.0,127.0,536.0
217.0,133.0,692.0
236.0,147.0,589.0
361.0,152.0,1023.0
495.0,157.0,1023.0
592.0,153.0,1023.0
650.0,154.0,1023.0
682.0,148.0,1023.0
622.0,147.0,1023.0
584.0,143.0,1023.0
551.0,136.0,1023.0
496.0,132.0,1023.0
457.0,129.0,1023.0
415.0,128.0,1023.0
385.0,129.0,1023.0
366.0,125.0,1023.0
353.0,129.0,1023.0
324.0,125.0,1023.0
310.0,125.0,980.0
308.0,127.0,874.0
299.0,128.0,763.0
322.0,129.0,658.0
339.0,125.0,610.0
333.0,122.0,525.0
291.0,123.0,475.0
259.0,124.0,429.0
261.0,125.0,367.0
268.0,122.0,398.0
266.0,121.0,363.0
265.0,123.0,323.0
261.0,119.0,300.0
272.0,121.0,335.0
305.0,124.0,328.0
331.0,128.0,299.0
312.0,131.0,294.0
302.0,128.0,304.0
297.0,127.0,288.0
277.0,124.0,292.0
266.0,120.0,277.0
260.0,122.0,296.0
315.0,123.0,295.0
335.0,129.0,276.0
314.0,124.0,256.0
335.0,127.0,281.0
295.0,126.0,273.0
272.0,124.0,278.0
260.0,127.0,290.0
281.0,127.0,264.0
260.0,125.0,311.0
245.0,123.0,287.0
228.0,124.0,309.0
284.0,128.0,341.0
291.0,121.0,318.0
288.0,126.0,299.0
312.0,120.0,267.0
306.0,124.0,271.0
311.0,126.0,264.0
297.0,124.0,257.0
293.0,121.0,249.0
256.0,122.0,235.0
246.0,125.0,249.0
252.0,128.0,281.0
280.0,127.0,283.0
242.0,126.0,304.0
267.0,127.0,306.0
263.0,123.0,295.0
263.0,125.0,356.0
272.0,123.0,386.0
276.0,127.0,453.0
297.0,125.0,516.0
142.0,119.0,136.0
140.0,117.0,139.0
138.0,117.0,142.0
138.0,118.0,141.0
137.0,115.0,134.0
141.0,118.0,136.0
140.0,116.0,134.0
137.0,117.0,131.0
143.0,118.0,137.0
143.0,116.0,142.0
148.0,119.0,140.0
151.0,115.0,149.0
148.0,116.0,151.0
153.0,117.0,170.0
163.0,116.0,199.0
170.0,118.0,197.0
176.0,120.0,246.0
209.0,118.0,355.0
255.0,130.0,582.0
241.0,142.0,668.0
309.0,158.0,600.0
414.0,167.0,1023.0
569.0,170.0,1023.0
613.0,166.0,1023.0
651.0,160.0,1023.0
663.0,155.0,1023.0
613.0,153.0,1023.0
584.0,147.0,1023.0
558.0,147.0,1023.0
514.0,143.0,1023.0
467.0,137.0,1023.0
464.0,136.0,1023.0
459.0,133.0,1023.0
441.0,132.0,1023.0
431.0,129.0,1023.0
413.0,134.0,1023.0
400.0,132.0,1023.0
402.0,134.0,1023.0
392.0,129.0,1023.0
387.0,129.0,996.0
365.0,135.0,951.0
328.0,127.0,906.0
296.0,126.0,856.0
328.0,130.0,844.0
313.0,125.0,762.0
281.0,126.0,739.0
313.0,125.0,703.0
306.0,123.0,667.0
311.0,127.0,573.0
315.0,126.0,531.0
292.0,128.0,514.0
290.0,128.0,451.0
284.0,122.0,434.0
278.0,126.0,403.0
277.0,122.0,382.0
276.0,120.0,361.0
238.0,118.0,344.0
251.0,120.0,378.0
284.0,124.0,388.0
254.0,119.0,329.0
264.0,125.0,321.0
231.0,121.0,321.0
268.0,120.0,329.0
274.0,118.0,314.0
264.0,118.0,308.0
262.0,123.0,326.0
268.0,116.0,344.0
246.0,120.0,275.0
261.0,120.0,297.0
271.0,121.0,277.0
277.0,127.0,275.0
260.0,121.0,289.0
259.0,123.0,306.0
267.0,122.0,292.0
269.0,120.0,271.0
290.0,131.0,302.0
237.0,120.0,304.0
261.0,122.0,335.0
265.0,120.0,311.0
285.0,118.0,327.0
271.0,121.0,340.0
234.0,118.0,392.0
268.0,122.0,406.0
320.0,123.0,419.0
296.0,123.0,428.0
280.0,128.0,454.0
296.0,123.0,429.0
263.0,125.0,429.0
271.0,127.0,442.0
226.0,123.0,446.0
255.0,125.0,508.0
223.0,124.0,569.0
198.0,123.0,607.0
220.0,120.0,687.0
191.0,120.0,784.0
202.0,122.0,855.0
175.0,119.0,932.0
165.0,119.0,963.0
156.0,120.0,971.0
150.0,132.0,963.0
399.0,125.0,835.0
427.0,126.0,952.0
465.0,126.0,1023.0
462.0,125.0,1017.0
451.0,127.0,969.0
426.0,128.0,933.0
407.0,130.0,864.0
428.0,126.0,841.0
411.0,126.0,868.0
379.0,131.0,889.0
373.0,127.0,918.0
346.0,127.0,840.0
372.0,129.0,822.0
336.0,127.0,782.0
319.0,126.0,758.0
294.0,120.0,705.0
308.0,124.0,686.0
321.0,122.0,653.0
306.0,128.0,618.0
287.0,126.0,560.0
272.0,126.0,540.0
262.0,125.0,570.0
266.0,128.0,547.0
246.0,129.0,524.0
282.0,133.0,490.0
281.0,131.0,471.0
259.0,141.0,430.0
255.0,130.0,447.0
236.0,129.0,433.0
222.0,125.0,445.0
220.0,124.0,398.0
225.0,129.0,407.0
216.0,124.0,345.0
255.0,125.0,339.0
247.0,123.0,336.0
270.0,123.0,338.0
250.0,123.0,357.0
255.0,122.0,373.0
246.0,122.0,384.0
279.0,124.0,437.0
282.0,124.0,441.0
251.0,126.0,418.0
277.0,124.0,381.0
330.0,127.0,346.0
338.0,125.0,341.0
295.0,125.0,333.0
285.0,129.0,333.0
277.0,127.0,315.0
252.0,122.0,291.0
240.0,126.0,286.0
279.0,123.0,286.0
269.0,123.0,290.0
300.0,124.0,266.0
276.0,124.0,267.0
263.0,123.0,284.0
230.0,123.0,267.0
248.0,125.0,267.0
226.0,121.0,254.0
243.0,120.0,247.0
258.0,123.0,262.0
283.0,125.0,280.0
308.0,129.0,290.0
261.0,125.0,308.0
333.0,128.0,286.0
278.0,126.0,251.0
300.0,128.0,254.0
260.0,126.0,237.0
251.0,123.0,249.0
274.0,124.0,231.0
265.0,124.0,252.0
270.0,123.0,226.0
261.0,122.0,237.0
265.0,124.0,262.0
266.0,121.0,255.0
247.0,123.0,269.0
241.0,122.0,303.0
226.0,121.0,413.0
205.0,120.0,557.0
223.0,117.0,692.0
179.0,118.0,787.0
167.0,117.0,874.0
158.0,123.0,892.0
145.0,119.0,882.0
146.0,122.0,885.0
149.0,160.0,829.0
149.0,194.0,796.0
145.0,171.0,752.0
140.0,148.0,718.0
138.0,145.0,643.0
133.0,139.0,566.0
132.0,138.0,471.0
132.0,139.0,405.0
137.0,134.0,349.0
132.0,130.0,326.0
140.0,128.0,302.0
143.0,127.0,289.0
150.0,125.0,287.0
147.0,123.0,287.0
146.0,126.0,287.0
146.0,123.0,310.0
129.0,115.0,131.0
129.0,114.0,129.0
133.0,119.0,134.0
128.0,114.0,134.0
131.0,113.0,132.0
129.0,113.0,139.0
127.0,114.0,140.0
124.0,116.0,143.0
126.0,116.0,145.0
125.0,116.0,143.0
123.0,115.0,148.0
128.0,116.0,142.0
137.0,118.0,157.0
162.0,123.0,253.0
213.0,134.0,304.0
229.0,143.0,508.0
280.0,150.0,547.0
386.0,168.0,534.0
507.0,160.0,870.0
615.0,157.0,1023.0
650.0,165.0,1023.0
659.0,159.0,1023.0
645.0,157.0,1023.0
635.0,151.0,1023.0
660.0,149.0,1023.0
615.0,143.0,1023.0
549.0,142.0,1023.0
506.0,146.0,1023.0
485.0,145.0,1023.0
456.0,143.0,1023.0
433.0,137.0,1023.0
394.0,132.0,1023.0
379.0,135.0,1023.0
338.0,135.0,1023.0
345.0,136.0,1023.0
353.0,135.0,1023.0
318.0,131.0,1023.0
311.0,128.0,1023.0
328.0,132.0,1023.0
332.0,128.0,982.0
297.0,124.0,887.0
334.0,127.0,800.0
328.0,130.0,728.0
331.0,128.0,626.0
319.0,126.0,588.0
287.0,125.0,517.0
301.0,129.0,430.0
292.0,128.0,386.0
285.0,130.0,350.0
279.0,124.0,331.0
320.0,126.0,307.0
279.0,125.0,325.0
274.0,122.0,315.0
249.0,122.0,301.0
247.0,119.0,300.0
235.0,116.0,293.0
325.0,126.0,294.0
310.0,129.0,309.0
297.0,121.0,320.0
301.0,126.0,316.0
323.0,122.0,337.0
285.0,123.0,340.0
299.0,124.0,398.0
312.0,122.0,446.0
272.0,120.0,447.0
270.0,118.0,499.0
262.0,121.0,495.0
288.0,120.0,484.0
283.0,117.0,483.0
276.0,121.0,473.0
265.0,121.0,488.0
254.0,122.0,463.0
277.0,120.0,474.0
277.0,123.0,450.0
270.0,120.0,435.0
306.0,119.0,415.0
254.0,123.0,422.0
248.0,120.0,395.0
253.0,121.0,408.0
332.0,129.0,399.0
349.0,125.0,380.0
365.0,120.0,410.0
350.0,127.0,498.0
362.0,126.0,514.0
301.0,122.0,525.0
304.0,123.0,528.0
281.0,117.0,521.0
292.0,120.0,551.0
301.0,120.0,558.0
237.0,119.0,599.0
212.0,116.0,671.0
270.0,121.0,721.0
239.0,121.0,775.0
279.0,121.0,850.0
289.0,121.0,836.0
245.0,119.0,862.0
278.0,121.0,856.0
232.0,119.0,873.0
216.0,119.0,889.0
209.0,120.0,908.0
136.0,221.0,135.0
135.0,177.0,143.0
131.0,154.0,133.0
137.0,151.0,136.0
131.0,140.0,136.0
130.0,138.0,137.0
131.0,134.0,139.0
129.0,136.0,139.0
134.0,139.0,136.0
138.0,134.0,138.0
137.0,134.0,139.0
143.0,133.0,134.0
143.0,131.0,130.0
148.0,132.0,136.0
151.0,127.0,138.0
147.0,125.0,145.0
156.0,124.0,177.0
185.0,130.0,251.0
220.0,136.0,412.0
230.0,135.0,679.0
292.0,140.0,840.0
406.0,145.0,662.0
522.0,154.0,705.0
589.0,156.0,1023.0
631.0,153.0,1023.0
677.0,151.0,1023.0
650.0,150.0,1023.0
601.0,142.0,1023.0
541.0,144.0,1023.0
483.0,138.0,982.0
458.0,136.0,866.0
406.0,133.0,794.0
383.0,129.0,738.0
338.0,127.0,662.0
327.0,130.0,619.0
324.0,129.0,564.0
306.0,133.0,496.0
274.0,129.0,434.0
279.0,133.0,453.0
259.0,125.0,442.0
270.0,124.0,492.0
257.0,123.0,480.0
271.0,124.0,430.0
238.0,126.0,399.0
245.0,120.0,343.0
290.0,126.0,316.0
273.0,124.0,320.0
276.0,125.0,289.0
271.0,125.0,290.0
266.0,121.0,273.0
247.0,121.0,274.0
219.0,119.0,263.0
213.0,119.0,283.0
254.0,125.0,307.0
272.0,121.0,281.0
270.0,123.0,280.0
269.0,126.0,251.0
296.0,123.0,266.0
310.0,126.0,252.0
289.0,123.0,249.0
275.0,126.0,245.0
278.0,126.0,251.0
304.0,124.0,247.0
281.0,130.0,260.0
244.0,126.0,242.0
293.0,125.0,233.0
310.0,125.0,260.0
336.0,125.0,260.0
278.0,125.0,249.0
254.0,122.0,250.0
235.0,122.0,247.0
248.0,123.0,259.0
247.0,120.0,263.0
229.0,128.0,261.0
237.0,126.0,231.0
227.0,122.0,261.0
225.0,122.0,258.0
245.0,124.0,252.0
244.0,131.0,262.0
235.0,120.0,239.0
258.0,124.0,244.0
307.0,124.0,241.0
269.0,118.0,263.0
256.0,124.0,276.0
237.0,120.0,248.0
233.0,121.0,281.0
214.0,125.0,254.0
264.0,120.0,249.0
295.0,122.0,276.0
275.0,123.0,273.0
271.0,119.0,282.0
267.0,127.0,288.0
285.0,123.0,273.0
297.0,126.0,267.0
285.0,128.0,303.0
301.0,124.0,271.0
282.0,124.0,256.0
261.0,124.0,272.0
229.0,130.0,254.0
221.0,122.0,278.0
142.0,118.0,128.0
138.0,118.0,124.0
140.0,118.0,126.0
139.0,116.0,124.0
136.0,115.0,123.0
138.0,114.0,126.0
136.0,116.0,124.0
141.0,119.0,129.0
136.0,115.0,125.0
133.0,115.0,124.0
134.0,113.0,125.0
132.0,113.0,126.0
134.0,112.0,126.0
134.0,112.0,125.0
132.0,114.0,128.0
134.0,112.0,125.0
133.0,115.0,127.0
132.0,118.0,138.0
130.0,137.0,137.0
140.0,142.0,164.0
166.0,149.0,195.0
185.0,158.0,281.0
208.0,158.0,540.0
245.0,167.0,831.0
369.0,177.0,956.0
464.0,172.0,803.0
538.0,166.0,633.0
505.0,162.0,546.0
505.0,157.0,655.0
567.0,155.0,791.0
554.0,154.0,943.0
512.0,146.0,1006.0
461.0,140.0,1017.0
382.0,140.0,1000.0
330.0,139.0,995.0
302.0,133.0,932.0
385.0,136.0,883.0
382.0,134.0,827.0
355.0,128.0,772.0
318.0,126.0,731.0
319.0,124.0,686.0
312.0,124.0,679.0
290.0,123.0,631.0
287.0,124.0,622.0
275.0,126.0,606.0
248.0,122.0,572.0
287.0,128.0,527.0
315.0,129.0,518.0
321.0,129.0,495.0
318.0,130.0,503.0
345.0,128.0,462.0
317.0,127.0,418.0
322.0,130.0,422.0
297.0,124.0,422.0
290.0,129.0,370.0
298.0,127.0,337.0
283.0,123.0,314.0
315.0,126.0,295.0
294.0,124.0,327.0
313.0,129.0,310.0
306.0,127.0,285.0
290.0,127.0,261.0
276.0,125.0,294.0
287.0,129.0,264.0
292.0,130.0,243.0
292.0,129.0,265.0
292.0,129.0,263.0
282.0,128.0,288.0
271.0,125.0,304.0
242.0,120.0,291.0
215.0,122.0,294.0
236.0,124.0,268.0
235.0,123.0,253.0
257.0,122.0,260.0
253.0,125.0,290.0
252.0,123.0,262.0
261.0,123.0,241.0
243.0,120.0,245.0
252.0,118.0,272.0
249.0,125.0,244.0
239.0,120.0,252.0
252.0,125.0,255.0
304.0,130.0,240.0
236.0,121.0,249.0
240.0,125.0,295.0
267.0,122.0,261.0
268.0,124.0,289.0
248.0,126.0,288.0
245.0,121.0,286.0
276.0,126.0,277.0
274.0,124.0,259.0
283.0,121.0,276.0
222.0,119.0,254.0
210.0,120.0,252.0
248.0,123.0,264.0
244.0,122.0,293.0
249.0,123.0,279.0
256.0,123.0,293.0
271.0,124.0,291.0
250.0,130.0,299.0
148.0,122.0,131.0
146.0,120.0,127.0
138.0,117.0,124.0
139.0,117.0,127.0
138.0,113.0,133.0
144.0,121.0,156.0
144.0,120.0,181.0
148.0,120.0,231.0
172.0,121.0,380.0
282.0,121.0,630.0
398.0,124.0,783.0
533.0,130.0,655.0
477.0,131.0,533.0
567.0,134.0,593.0
654.0,132.0,683.0
627.0,133.0,744.0
645.0,131.0,807.0
672.0,132.0,805.0
640.0,133.0,795.0
587.0,135.0,801.0
544.0,135.0,800.0
527.0,131.0,778.0
500.0,137.0,777.0
410.0,174.0,769.0
351.0,176.0,773.0
326.0,167.0,751.0
309.0,159.0,720.0
296.0,151.0,675.0
293.0,147.0,633.0
271.0,141.0,590.0
253.0,136.0,576.0
253.0,136.0,542.0
231.0,128.0,525.0
245.0,127.0,481.0
232.0,128.0,425.0
261.0,136.0,430.0
257.0,127.0,376.0
271.0,129.0,354.0
290.0,129.0,341.0
291.0,127.0,342.0
255.0,129.0,317.0
263.0,128.0,302.0
245.0,128.0,288.0
245.0,123.0,296.0
234.0,123.0,330.0
222.0,123.0,334.0
226.0,120.0,318.0
249.0,125.0,284.0
236.0,123.0,270.0
273.0,125.0,258.0
238.0,122.0,287.0
269.0,123.0,284.0
237.0,123.0,265.0
244.0,117.0,269.0
251.0,119.0,295.0
245.0,121.0,263.0
254.0,121.0,258.0
261.0,125.0,261.0
220.0,118.0,263.0
226.0,120.0,259.0
220.0,120.0,250.0
254.0,120.0,260.0
225.0,118.0,242.0
223.0,121.0,267.0
259.0,117.0,241.0
227.0,121.0,226.0
252.0,120.0,259.0
244.0,123.0,282.0
241.0,122.0,287.0
212.0,121.0,261.0
216.0,121.0,249.0
235.0,120.0,253.0
244.0,125.0,238.0
222.0,119.0,252.0
226.0,119.0,234.0
226.0,120.0,221.0
224.0,120.0,234.0
223.0,120.0,252.0
246.0,118.0,252.0
242.0,118.0,271.0
247.0,120.0,256.0
271.0,116.0,235.0
282.0,116.0,252.0
292.0,118.0,301.0
266.0,119.0,296.0
261.0,119.0,303.0
311.0,117.0,279.0
274.0,120.0,289.0
235.0,118.0,260.0
226.0,118.0,270.0
224.0,119.0,295.0
247.0,120.0,268.0
251.0,127.0,273.0
299.0,126.0,313.0
266.0,125.0,281.0
237.0,123.0,265.0
236.0,124.0,253.0
247.0,125.0,266.0
237.0,123.0,279.0
280.0,123.0,264.0
164.0,116.0,130.0
182.0,115.0,132.0
183.0,117.0,131.0
185.0,116.0,128.0
189.0,121.0,132.0
174.0,117.0,127.0
177.0,114.0,123.0
174.0,116.0,124.0
193.0,121.0,146.0
232.0,122.0,167.0
247.0,125.0,284.0
237.0,129.0,515.0
296.0,138.0,692.0
352.0,144.0,621.0
411.0,148.0,500.0
423.0,143.0,489.0
433.0,143.0,589.0
472.0,141.0,655.0
510.0,139.0,719.0
526.0,140.0,760.0
540.0,140.0,796.0
500.0,133.0,778.0
432.0,129.0,749.0
397.0,125.0,664.0
350.0,126.0,606.0
304.0,130.0,562.0
294.0,125.0,530.0
283.0,125.0,490.0
257.0,124.0,476.0
256.0,125.0,430.0
261.0,129.0,416.0
289.0,127.0,429.0
318.0,126.0,411.0
303.0,125.0,379.0
258.0,126.0,398.0
250.0,124.0,365.0
253.0,123.0,333.0
282.0,129.0,341.0
280.0,129.0,345.0
272.0,122.0,310.0
253.0,124.0,296.0
252.0,119.0,283.0
226.0,119.0,306.0
231.0,120.0,289.0
271.0,119.0,305.0
266.0,124.0,310.0
226.0,120.0,281.0
243.0,126.0,278.0
211.0,124.0,262.0
217.0,124.0,261.0
236.0,124.0,242.0
226.0,122.0,273.0
225.0,123.0,248.0
263.0,125.0,245.0
244.0,121.0,225.0
270.0,126.0,232.0
244.0,119.0,246.0
247.0,120.0,240.0
249.0,122.0,253.0
231.0,121.0,254.0
241.0,125.0,273.0
221.0,123.0,280.0
198.0,121.0,282.0
193.0,123.0,271.0
224.0,124.0,256.0
224.0,121.0,247.0
239.0,121.0,247.0
225.0,120.0,256.0
217.0,117.0,247.0
203.0,119.0,242.0
219.0,125.0,249.0
210.0,126.0,240.0
221.0,127.0,208.0
239.0,127.0,248.0
231.0,123.0,225.0
223.0,123.0,244.0
248.0,121.0,243.0
228.0,117.0,239.0
218.0,119.0,243.0
209.0,120.0,254.0
227.0,123.0,273.0
208.0,121.0,270.0
222.0,118.0,290.0
247.0,120.0,260.0
254.0,122.0,272.0
250.0,123.0,286.0
298.0,122.0,300.0
252.0,123.0,311.0
222.0,118.0,282.0
197.0,119.0,341.0
184.0,120.0,336.0
202.0,119.0,384.0
212.0,124.0,406.0
223.0,121.0,430.0
202.0,118.0,433.0
172.0,121.0,462.0
154.0,144.0,467.0
145.0,191.0,406.0
147.0,184.0,375.0
149.0,157.0,362.0
172.0,118.0,139.0
195.0,117.0,141.0
212.0,119.0,139.0
259.0,120.0,141.0
297.0,118.0,140.0
304.0,117.0,143.0
324.0,126.0,195.0
372.0,135.0,219.0
382.0,139.0,324.0
309.0,133.0,601.0
334.0,132.0,851.0
348.0,129.0,854.0
414.0,133.0,620.0
470.0,136.0,607.0
544.0,134.0,743.0
591.0,138.0,912.0
603.0,136.0,986.0
558.0,129.0,1012.0
538.0,136.0,984.0
513.0,134.0,949.0
475.0,128.0,921.0
408.0,125.0,819.0
387.0,127.0,764.0
382.0,134.0,722.0
338.0,127.0,678.0
300.0,128.0,629.0
265.0,124.0,596.0
244.0,123.0,535.0
246.0,127.0,493.0
234.0,125.0,443.0
249.0,127.0,426.0
250.0,124.0,431.0
265.0,125.0,404.0
259.0,124.0,393.0
307.0,130.0,385.0
319.0,131.0,387.0
279.0,125.0,358.0
298.0,124.0,348.0
302.0,127.0,328.0
254.0,125.0,332.0
231.0,126.0,307.0
217.0,123.0,310.0
226.0,120.0,280.0
220.0,123.0,284.0
224.0,125.0,289.0
214.0,124.0,283.0
242.0,124.0,270.0
208.0,118.0,227.0
260.0,122.0,227.0
238.0,121.0,244.0
239.0,120.0,226.0
216.0,123.0,222.0
237.0,119.0,227.0
251.0,121.0,239.0
238.0,121.0,243.0
218.0,117.0,279.0
215.0,117.0,264.0
222.0,120.0,264.0
262.0,123.0,249.0
257.0,120.0,272.0
224.0,119.0,257.0
219.0,119.0,270.0
230.0,119.0,258.0
256.0,120.0,248.0
237.0,122.0,240.0
243.0,124.0,225.0
271.0,125.0,227.0
259.0,125.0,257.0
236.0,122.0,276.0
226.0,122.0,282.0
272.0,123.0,271.0
243.0,126.0,277.0
259.0,125.0,260.0
259.0,129.0,279.0
233.0,128.0,275.0
224.0,127.0,260.0
220.0,128.0,287.0
213.0,128.0,296.0
206.0,127.0,297.0
219.0,125.0,248.0
225.0,128.0,268.0
242.0,124.0,272.0
250.0,126.0,298.0
237.0,123.0,274.0
250.0,125.0,259.0
239.0,132.0,301.0
248.0,123.0,266.0
224.0,127.0,283.0
233.0,122.0,281.0
232.0,121.0,256.0
218.0,120.0,239.0
211.0,118.0,253.0
203.0,120.0,293.0
227.0,120.0,311.0
216.0,119.0,288.0
231.0,118.0,305.0
237.0,118.0,270.0
242.0,116.0,262.0
236.0,118.0,259.0
220.0,121.0,279.0
135.0,118.0,123.0
134.0,116.0,126.0
134.0,116.0,126.0
133.0,118.0,127.0
134.0,120.0,129.0
135.0,121.0,130.0
135.0,117.0,127.0
136.0,116.0,129.0
145.0,120.0,144.0
149.0,122.0,181.0
159.0,124.0,267.0
183.0,123.0,462.0
211.0,127.0,688.0
257.0,136.0,823.0
328.0,143.0,729.0
352.0,153.0,515.0
404.0,152.0,490.0
464.0,156.0,582.0
474.0,156.0,638.0
444.0,156.0,666.0
412.0,152.0,718.0
385.0,146.0,713.0
372.0,141.0,726.0
349.0,136.0,691.0
326.0,133.0,612.0
321.0,129.0,582.0
293.0,132.0,563.0
312.0,132.0,545.0
301.0,130.0,505.0
311.0,126.0,490.0
279.0,126.0,507.0
234.0,122.0,456.0
240.0,129.0,437.0
250.0,126.0,402.0
221.0,125.0,394.0
289.0,131.0,383.0
347.0,129.0,377.0
305.0,127.0,359.0
295.0,128.0,342.0
269.0,126.0,352.0
257.0,127.0,332.0
273.0,129.0,346.0
337.0,130.0,345.0
324.0,130.0,305.0
356.0,132.0,291.0
338.0,134.0,295.0
279.0,126.0,294.0
285.0,125.0,296.0
314.0,124.0,290.0
305.0,124.0,278.0
280.0,124.0,279.0
258.0,124.0,269.0
253.0,122.0,257.0
250.0,123.0,273.0
275.0,130.0,297.0
256.0,130.0,305.0
284.0,125.0,264.0
238.0,123.0,275.0
237.0,121.0,246.0
232.0,120.0,270.0
274.0,129.0,286.0
240.0,124.0,311.0
257.0,123.0,273.0
268.0,122.0,252.0
264.0,120.0,260.0
304.0,123.0,256.0
267.0,125.0,250.0
279.0,128.0,236.0
253.0,125.0,264.0
286.0,127.0,269.0
263.0,126.0,267.0
224.0,120.0,254.0
268.0,131.0,251.0
291.0,124.0,231.0
276.0,125.0,269.0
287.0,129.0,300.0
256.0,122.0,264.0
260.0,124.0,251.0
225.0,122.0,255.0
216.0,120.0,247.0
193.0,121.0,244.0
195.0,119.0,256.0
235.0,124.0,246.0
281.0,122.0,256.0
253.0,119.0,307.0
250.0,122.0,332.0
244.0,120.0,386.0
241.0,124.0,412.0
229.0,121.0,380.0
241.0,122.0,416.0
214.0,122.0,428.0
241.0,121.0,440.0
235.0,123.0,461.0
223.0,120.0,466.0
211.0,117.0,512.0
199.0,119.0,484.0
182.0,116.0,491.0
175.0,121.0,507.0
203.0,117.0,540.0
193.0,118.0,538.0
155.0,119.0,135.0
168.0,127.0,140.0
185.0,144.0,146.0
174.0,150.0,144.0
163.0,148.0,140.0
166.0,150.0,140.0
155.0,147.0,138.0
160.0,144.0,143.0
154.0,141.0,151.0
170.0,139.0,184.0
195.0,143.0,288.0
266.0,169.0,454.0
317.0,160.0,650.0
339.0,158.0,775.0
326.0,158.0,627.0
306.0,164.0,523.0
334.0,160.0,645.0
339.0,159.0,888.0
349.0,151.0,1023.0
363.0,143.0,1023.0
353.0,139.0,1023.0
339.0,135.0,1023.0
338.0,135.0,1023.0
319.0,139.0,1005.0
286.0,135.0,928.0
295.0,135.0,904.0
263.0,128.0,871.0
263.0,125.0,843.0
292.0,128.0,802.0
291.0,122.0,819.0
284.0,124.0,770.0
283.0,120.0,740.0
310.0,120.0,704.0
299.0,120.0,679.0
266.0,121.0,630.0
272.0,125.0,593.0
298.0,125.0,569.0
283.0,122.0,504.0
357.0,125.0,481.0
280.0,121.0,488.0
289.0,130.0,440.0
282.0,128.0,408.0
285.0,127.0,358.0
282.0,128.0,332.0
280.0,125.0,314.0
284.0,127.0,303.0
236.0,121.0,295.0
251.0,125.0,292.0
253.0,128.0,292.0
286.0,128.0,271.0
307.0,129.0,292.0
266.0,127.0,263.0
244.0,124.0,235.0
268.0,121.0,235.0
265.0,122.0,251.0
228.0,124.0,230.0
237.0,131.0,224.0
252.0,132.0,224.0
259.0,130.0,231.0
248.0,127.0,247.0
249.0,129.0,251.0
237.0,125.0,241.0
261.0,121.0,244.0
264.0,122.0,273.0
244.0,123.0,269.0
241.0,126.0,262.0
224.0,123.0,333.0
252.0,124.0,319.0
246.0,126.0,328.0
255.0,123.0,312.0
236.0,122.0,311.0
227.0,120.0,347.0
289.0,123.0,320.0
256.0,124.0,326.0
281.0,123.0,318.0
274.0,122.0,332.0
226.0,120.0,366.0
267.0,120.0,368.0
242.0,119.0,355.0
233.0,121.0,355.0
238.0,124.0,336.0
260.0,122.0,351.0
270.0,121.0,381.0
242.0,120.0,375.0
269.0,120.0,332.0
270.0,123.0,337.0
274.0,124.0,315.0
303.0,123.0,309.0
318.0,122.0,326.0
306.0,121.0,306.0
273.0,119.0,332.0
262.0,120.0,343.0
250.0,121.0,334.0
248.0,118.0,333.0
259.0,119.0,349.0
272.0,122.0,386.0
294.0,129.0,382.0
270.0,122.0,384.0
299.0,123.0,350.0
265.0,122.0,351.0
134.0,118.0,124.0
139.0,117.0,125.0
139.0,116.0,121.0
141.0,119.0,125.0
140.0,115.0,126.0
138.0,119.0,124.0
139.0,118.0,131.0
134.0,116.0,129.0
140.0,122.0,169.0
183.0,120.0,256.0
185.0,120.0,444.0
221.0,121.0,701.0
213.0,121.0,1011.0
220.0,128.0,1023.0
260.0,131.0,1023.0
263.0,135.0,1023.0
282.0,142.0,1023.0
260.0,134.0,810.0
296.0,137.0,708.0
327.0,138.0,875.0
305.0,134.0,1023.0
343.0,140.0,1023.0
346.0,134.0,1023.0
361.0,138.0,1023.0
402.0,136.0,1023.0
410.0,138.0,1023.0
373.0,142.0,1023.0
342.0,136.0,1023.0
329.0,134.0,1005.0
320.0,133.0,984.0
312.0,131.0,922.0
356.0,131.0,866.0
297.0,128.0,795.0
333.0,131.0,707.0
306.0,133.0,659.0
303.0,133.0,594.0
298.0,135.0,538.0
306.0,131.0,530.0
335.0,140.0,510.0
324.0,129.0,482.0
322.0,127.0,489.0
285.0,129.0,422.0
268.0,130.0,368.0
275.0,132.0,337.0
267.0,133.0,305.0
287.0,129.0,274.0
311.0,126.0,294.0
289.0,126.0,282.0
287.0,126.0,292.0
266.0,127.0,262.0
240.0,124.0,258.0
290.0,125.0,258.0
271.0,123.0,287.0
255.0,126.0,250.0
269.0,127.0,255.0
253.0,124.0,249.0
270.0,123.0,265.0
246.0,120.0,266.0
255.0,124.0,298.0
215.0,121.0,259.0
211.0,120.0,234.0
231.0,125.0,236.0
237.0,123.0,277.0
228.0,123.0,261.0
235.0,121.0,252.0
267.0,127.0,275.0
263.0,130.0,280.0
305.0,127.0,295.0
278.0,125.0,282.0
230.0,124.0,298.0
251.0,121.0,306.0
223.0,118.0,285.0
247.0,121.0,294.0
267.0,124.0,283.0
258.0,124.0,316.0
275.0,123.0,315.0
300.0,125.0,308.0
281.0,124.0,285.0
256.0,134.0,287.0
251.0,131.0,281.0
259.0,124.0,316.0
243.0,125.0,293.0
245.0,125.0,292.0
251.0,128.0,310.0
274.0,124.0,304.0
279.0,124.0,321.0
256.0,122.0,318.0
271.0,126.0,332.0
234.0,125.0,308.0
217.0,125.0,308.0
217.0,124.0,293.0
230.0,121.0,291.0
222.0,119.0,296.0
226.0,123.0,315.0
214.0,124.0,304.0
224.0,125.0,297.0
204.0,119.0,310.0
222.0,120.0,339.0
240.0,129.0,350.0
261.0,124.0,372.0
129.0,117.0,126.0
130.0,119.0,127.0
126.0,115.0,126.0
126.0,115.0,125.0
132.0,120.0,128.0
128.0,117.0,128.0
132.0,118.0,136.0
139.0,117.0,151.0
159.0,120.0,217.0
189.0,120.0,388.0
194.0,125.0,584.0
225.0,130.0,768.0
240.0,126.0,887.0
251.0,130.0,920.0
262.0,132.0,745.0
308.0,135.0,527.0
337.0,140.0,498.0
337.0,135.0,560.0
359.0,137.0,649.0
325.0,135.0,694.0
310.0,131.0,713.0
301.0,132.0,711.0
286.0,124.0,667.0
290.0,125.0,597.0
299.0,125.0,574.0
290.0,128.0,554.0
292.0,128.0,579.0
317.0,125.0,558.0
304.0,128.0,589.0
345.0,129.0,562.0
335.0,132.0,545.0
293.0,128.0,563.0
274.0,128.0,521.0
327.0,129.0,537.0
326.0,131.0,539.0
310.0,126.0,508.0
299.0,128.0,507.0
340.0,130.0,484.0
313.0,133.0,456.0
323.0,131.0,434.0
292.0,132.0,438.0
324.0,134.0,407.0
273.0,128.0,416.0
295.0,125.0,425.0
272.0,127.0,403.0
262.0,126.0,387.0
290.0,126.0,439.0
284.0,125.0,403.0
279.0,123.0,367.0
309.0,121.0,323.0
279.0,119.0,361.0
262.0,126.0,341.0
270.0,123.0,291.0
257.0,121.0,305.0
259.0,123.0,316.0
253.0,122.0,324.0
264.0,125.0,358.0
239.0,121.0,349.0
255.0,121.0,314.0
229.0,125.0,278.0
226.0,121.0,304.0
235.0,126.0,324.0
224.0,125.0,335.0
268.0,123.0,320.0
251.0,129.0,301.0
281.0,126.0,278.0
282.0,128.0,257.0
259.0,123.0,249.0
267.0,124.0,247.0
276.0,125.0,257.0
242.0,122.0,241.0
235.0,125.0,261.0
267.0,126.0,238.0
254.0,122.0,232.0
296.0,125.0,225.0
308.0,121.0,232.0
349.0,124.0,215.0
294.0,120.0,216.0
308.0,123.0,232.0
305.0,126.0,234.0
330.0,127.0,255.0
281.0,126.0,256.0
242.0,121.0,299.0
272.0,121.0,304.0
254.0,124.0,316.0
290.0,123.0,312.0
265.0,120.0,331.0
245.0,122.0,308.0
302.0,122.0,310.0
233.0,120.0,337.0
235.0,126.0,330.0
272.0,124.0,347.0
285.0,122.0,344.0
239.0,120.0,351.0
229.0,117.0,344.0
211.0,119.0,380.0
227.0,121.0,377.0
234.0,118.0,396.0
251.0,117.0,442.0
251.0,115.0,467.0
126.0,116.0,129.0
128.0,117.0,130.0
129.0,117.0,129.0
124.0,115.0,126.0
134.0,120.0,131.0
129.0,115.0,141.0
134.0,117.0,152.0
174.0,121.0,175.0
164.0,122.0,233.0
189.0,124.0,364.0
232.0,126.0,574.0
291.0,133.0,805.0
292.0,142.0,907.0
312.0,144.0,749.0
337.0,150.0,527.0
350.0,148.0,484.0
377.0,145.0,567.0
389.0,148.0,649.0
443.0,139.0,673.0
449.0,143.0,664.0
407.0,134.0,692.0
387.0,130.0,705.0
365.0,132.0,702.0
345.0,129.0,653.0
333.0,134.0,607.0
300.0,124.0,557.0
284.0,126.0,546.0
260.0,129.0,522.0
320.0,134.0,491.0
320.0,137.0,456.0
316.0,128.0,413.0
341.0,130.0,417.0
309.0,130.0,395.0
274.0,124.0,404.0
276.0,127.0,402.0
291.0,130.0,393.0
279.0,128.0,353.0
302.0,138.0,354.0
281.0,134.0,400.0
279.0,132.0,356.0
244.0,126.0,337.0
254.0,123.0,333.0
240.0,121.0,333.0
313.0,123.0,346.0
276.0,124.0,333.0
244.0,121.0,316.0
240.0,119.0,274.0
232.0,117.0,301.0
238.0,119.0,308.0
219.0,125.0,299.0
220.0,125.0,288.0
206.0,121.0,250.0
212.0,125.0,282.0
226.0,121.0,248.0
226.0,125.0,235.0
224.0,122.0,242.0
241.0,123.0,267.0
240.0,123.0,277.0
224.0,119.0,239.0
236.0,123.0,241.0
229.0,120.0,234.0
228.0,119.0,258.0
250.0,120.0,245.0
281.0,124.0,268.0
314.0,129.0,279.0
258.0,123.0,281.0
283.0,124.0,279.0
300.0,127.0,269.0
280.0,124.0,284.0
301.0,130.0,292.0
299.0,124.0,287.0
300.0,119.0,265.0
305.0,120.0,270.0
274.0,122.0,261.0
285.0,123.0,267.0
303.0,124.0,259.0
249.0,122.0,269.0
281.0,122.0,281.0
291.0,123.0,286.0
308.0,128.0,280.0
280.0,129.0,309.0
269.0,125.0,289.0
229.0,121.0,263.0
222.0,121.0,273.0
265.0,124.0,279.0
240.0,122.0,265.0
237.0,122.0,279.0
199.0,118.0,273.0
271.0,125.0,305.0
248.0,125.0,275.0
234.0,124.0,274.0
207.0,121.0,256.0
230.0,119.0,277.0
224.0,119.0,294.0
272.0,125.0,271.0
268.0,126.0,275.0
244.0,121.0,254.0
232.0,122.0,266.0
264.0,123.0,270.0
234.0,126.0,246.0
132.0,118.0,140.0
137.0,120.0,145.0
134.0,119.0,142.0
133.0,121.0,144.0
134.0,122.0,141.0
144.0,127.0,154.0
145.0,123.0,193.0
182.0,129.0,249.0
259.0,146.0,415.0
245.0,153.0,659.0
286.0,175.0,893.0
279.0,183.0,976.0
308.0,175.0,829.0
304.0,164.0,612.0
330.0,148.0,501.0
340.0,143.0,522.0
367.0,140.0,558.0
368.0,135.0,601.0
359.0,127.0,641.0
359.0,130.0,688.0
327.0,133.0,705.0
328.0,136.0,698.0
311.0,135.0,731.0
286.0,128.0,687.0
247.0,125.0,645.0
245.0,124.0,621.0
232.0,128.0,618.0
223.0,128.0,535.0
239.0,128.0,524.0
257.0,128.0,490.0
246.0,125.0,456.0
252.0,128.0,471.0
261.0,125.0,432.0
291.0,127.0,419.0
251.0,123.0,415.0
268.0,123.0,405.0
289.0,125.0,386.0
254.0,124.0,360.0
250.0,124.0,377.0
272.0,125.0,376.0
253.0,129.0,349.0
278.0,124.0,359.0
250.0,126.0,336.0
263.0,130.0,351.0
277.0,125.0,334.0
268.0,126.0,335.0
236.0,124.0,294.0
254.0,126.0,268.0
256.0,126.0,290.0
219.0,125.0,285.0
261.0,129.0,277.0
242.0,125.0,262.0
231.0,126.0,281.0
258.0,125.0,302.0
230.0,124.0,280.0
215.0,121.0,276.0
259.0,120.0,291.0
248.0,121.0,256.0
287.0,118.0,258.0
283.0,123.0,276.0
243.0,125.0,267.0
245.0,125.0,271.0
230.0,127.0,288.0
304.0,125.0,288.0
302.0,126.0,302.0
294.0,126.0,249.0
328.0,124.0,248.0
303.0,132.0,250.0
291.0,129.0,237.0
321.0,128.0,239.0
300.0,125.0,279.0
283.0,125.0,304.0
325.0,127.0,298.0
284.0,127.0,316.0
303.0,126.0,314.0
338.0,128.0,288.0
332.0,125.0,258.0
323.0,129.0,253.0
304.0,124.0,238.0
314.0,125.0,249.0
304.0,125.0,255.0
361.0,124.0,296.0
325.0,123.0,305.0
350.0,126.0,387.0
330.0,121.0,389.0
343.0,123.0,403.0
342.0,122.0,387.0
311.0,123.0,392.0
296.0,122.0,393.0
260.0,122.0,424.0
285.0,121.0,431.0
314.0,121.0,410.0
296.0,122.0,425.0
338.0,124.0,414.0
291.0,123.0,399.0
297.0,120.0,384.0
226.0,121.0,423.0
235.0,120.0,480.0
248.0,121.0,595.0
211.0,118.0,717.0
131.0,172.0,120.0
131.0,165.0,120.0
130.0,161.0,120.0
133.0,153.0,120.0
133.0,148.0,121.0
134.0,143.0,124.0
129.0,139.0,132.0
130.0,138.0,147.0
135.0,142.0,163.0
178.0,142.0,221.0
189.0,137.0,348.0
193.0,135.0,598.0
221.0,137.0,885.0
284.0,140.0,975.0
296.0,140.0,820.0
391.0,138.0,634.0
417.0,139.0,504.0
423.0,137.0,572.0
405.0,132.0,601.0
372.0,130.0,630.0
354.0,128.0,646.0
367.0,133.0,648.0
342.0,128.0,590.0
328.0,130.0,591.0
321.0,132.0,571.0
287.0,131.0,548.0
307.0,132.0,516.0
305.0,129.0,479.0
307.0,134.0,498.0
272.0,132.0,469.0
263.0,134.0,510.0
239.0,130.0,502.0
254.0,126.0,472.0
290.0,131.0,466.0
259.0,125.0,460.0
265.0,127.0,455.0
283.0,126.0,411.0
321.0,128.0,385.0
299.0,129.0,392.0
294.0,126.0,353.0
293.0,125.0,349.0
308.0,126.0,333.0
289.0,125.0,357.0
247.0,126.0,320.0
315.0,129.0,324.0
318.0,131.0,292.0
319.0,128.0,279.0
355.0,129.0,248.0
368.0,126.0,249.0
352.0,127.0,287.0
296.0,125.0,266.0
319.0,121.0,282.0
332.0,124.0,310.0
323.0,125.0,271.0
347.0,125.0,286.0
357.0,129.0,268.0
328.0,125.0,238.0
337.0,127.0,278.0
321.0,126.0,246.0
318.0,123.0,225.0
294.0,130.0,241.0
293.0,120.0,233.0
285.0,118.0,216.0
288.0,120.0,240.0
304.0,119.0,238.0
337.0,121.0,271.0
317.0,123.0,266.0
306.0,123.0,277.0
271.0,123.0,304.0
282.0,120.0,270.0
300.0,126.0,304.0
301.0,123.0,286.0
280.0,123.0,273.0
286.0,127.0,264.0
293.0,123.0,236.0
300.0,125.0,259.0
320.0,123.0,268.0
325.0,126.0,313.0
291.0,120.0,315.0
332.0,122.0,335.0
293.0,121.0,332.0
287.0,119.0,349.0
308.0,119.0,382.0
291.0,120.0,382.0
262.0,120.0,392.0
285.0,126.0,379.0
256.0,120.0,385.0
287.0,118.0,382.0
297.0,122.0,393.0
300.0,120.0,394.0
298.0,128.0,415.0
262.0,122.0,406.0
213.0,121.0,468.0
219.0,120.0,562.0
195.0,119.0,609.0
187.0,121.0,638.0
175.0,120.0,639.0
174.0,120.0,595.0
169.0,118.0,609.0
153.0,115.0,600.0
128.0,116.0,119.0
131.0,117.0,124.0
128.0,116.0,122.0
129.0,119.0,124.0
128.0,117.0,121.0
127.0,118.0,122.0
139.0,133.0,131.0
147.0,189.0,139.0
166.0,242.0,188.0
173.0,220.0,288.0
183.0,173.0,518.0
180.0,152.0,786.0
186.0,144.0,1023.0
180.0,137.0,1023.0
189.0,139.0,1023.0
192.0,134.0,1023.0
235.0,147.0,1023.0
233.0,140.0,1023.0
282.0,138.0,1023.0
316.0,143.0,944.0
308.0,136.0,702.0
312.0,141.0,759.0
331.0,139.0,895.0
354.0,134.0,1000.0
370.0,135.0,1023.0
411.0,135.0,1023.0
405.0,144.0,1009.0
398.0,141.0,989.0
408.0,134.0,934.0
363.0,138.0,907.0
325.0,139.0,866.0
307.0,137.0,840.0
293.0,129.0,801.0
277.0,131.0,785.0
301.0,137.0,705.0
308.0,135.0,665.0
315.0,131.0,657.0
333.0,133.0,640.0
295.0,129.0,578.0
336.0,129.0,567.0
345.0,131.0,528.0
338.0,131.0,502.0
340.0,128.0,475.0
322.0,129.0,446.0
357.0,138.0,441.0
375.0,136.0,402.0
368.0,140.0,387.0
344.0,137.0,385.0
312.0,139.0,421.0
318.0,131.0,377.0
306.0,129.0,303.0
319.0,128.0,302.0
318.0,126.0,303.0
313.0,130.0,316.0
320.0,126.0,334.0
332.0,126.0,335.0
345.0,123.0,310.0
410.0,127.0,339.0
412.0,130.0,366.0
395.0,132.0,327.0
401.0,128.0,293.0
361.0,129.0,298.0
330.0,123.0,284.0
297.0,125.0,264.0
310.0,128.0,264.0
310.0,124.0,238.0
287.0,126.0,282.0
288.0,123.0,285.0
271.0,127.0,271.0
263.0,126.0,275.0
276.0,130.0,273.0
249.0,129.0,229.0
257.0,127.0,231.0
273.0,128.0,253.0
317.0,126.0,251.0
307.0,129.0,231.0
288.0,128.0,230.0
263.0,128.0,254.0
273.0,125.0,253.0
270.0,127.0,226.0
276.0,124.0,262.0
269.0,125.0,255.0
247.0,121.0,217.0
277.0,124.0,297.0
244.0,121.0,257.0
303.0,124.0,258.0
293.0,120.0,254.0
378.0,121.0,273.0
332.0,126.0,290.0
312.0,126.0,294.0
290.0,125.0,278.0
272.0,123.0,263.0
267.0,125.0,246.0
280.0,125.0,300.0
268.0,120.0,279.0
285.0,125.0,304.0
262.0,125.0,306.0
247.0,121.0,285.0
262.0,127.0,269.0
246.0,123.0,257.0
129.0,116.0,135.0
132.0,117.0,135.0
130.0,116.0,140.0
128.0,115.0,141.0
133.0,117.0,137.0
130.0,116.0,137.0
130.0,117.0,128.0
131.0,117.0,134.0
128.0,115.0,134.0
133.0,119.0,133.0
130.0,115.0,132.0
131.0,114.0,136.0
131.0,115.0,139.0
129.0,119.0,136.0
129.0,119.0,133.0
128.0,118.0,147.0
136.0,119.0,172.0
143.0,121.0,304.0
157.0,121.0,617.0
206.0,126.0,1023.0
217.0,127.0,1023.0
217.0,127.0,1023.0
211.0,129.0,1023.0
254.0,140.0,1023.0
261.0,147.0,1023.0
257.0,150.0,1023.0
328.0,142.0,1023.0
330.0,147.0,724.0
362.0,143.0,597.0
368.0,145.0,548.0
351.0,143.0,604.0
390.0,140.0,654.0
381.0,136.0,680.0
440.0,140.0,727.0
428.0,142.0,775.0
436.0,141.0,800.0
420.0,135.0,806.0
388.0,133.0,811.0
349.0,131.0,796.0
327.0,128.0,808.0
301.0,127.0,743.0
285.0,128.0,759.0
317.0,127.0,777.0
318.0,130.0,737.0
297.0,126.0,675.0
308.0,126.0,667.0
288.0,128.0,631.0
326.0,125.0,602.0
352.0,135.0,628.0
318.0,130.0,547.0
321.0,129.0,551.0
284.0,126.0,490.0
290.0,124.0,452.0
266.0,130.0,447.0
271.0,126.0,412.0
271.0,128.0,411.0
301.0,130.0,366.0
314.0,135.0,339.0
327.0,133.0,353.0
367.0,134.0,338.0
320.0,129.0,317.0
296.0,130.0,325.0
302.0,125.0,342.0
285.0,127.0,341.0
324.0,131.0,352.0
291.0,126.0,309.0
276.0,127.0,304.0
263.0,130.0,315.0
299.0,130.0,316.0
323.0,130.0,325.0
312.0,130.0,307.0
308.0,128.0,301.0
253.0,129.0,274.0
290.0,128.0,308.0
290.0,128.0,294.0
286.0,121.0,263.0
284.0,127.0,255.0
248.0,124.0,268.0
270.0,130.0,270.0
242.0,129.0,251.0
216.0,126.0,253.0
258.0,129.0,259.0
274.0,130.0,257.0
285.0,124.0,240.0
301.0,129.0,265.0
252.0,127.0,263.0
315.0,133.0,283.0
319.0,130.0,277.0
264.0,127.0,267.0
246.0,128.0,286.0
250.0,124.0,278.0
214.0,122.0,265.0
238.0,125.0,264.0
278.0,127.0,271.0
279.0,127.0,332.0
252.0,123.0,326.0
242.0,123.0,331.0
267.0,126.0,339.0
274.0,122.0,314.0
280.0,124.0,328.0
157.0,112.0,124.0
164.0,116.0,129.0
163.0,112.0,121.0
178.0,113.0,125.0
168.0,113.0,124.0
177.0,113.0,123.0
179.0,116.0,126.0
177.0,114.0,122.0
182.0,111.0,122.0
177.0,112.0,121.0
184.0,111.0,121.0
188.0,113.0,124.0
189.0,111.0,122.0
202.0,111.0,125.0
193.0,111.0,126.0
187.0,113.0,122.0
183.0,115.0,125.0
174.0,114.0,121.0
182.0,113.0,121.0
173.0,119.0,121.0
166.0,182.0,122.0
156.0,299.0,130.0
142.0,336.0,128.0
146.0,298.0,131.0
147.0,220.0,124.0
185.0,182.0,183.0
247.0,172.0,227.0
328.0,157.0,238.0
437.0,150.0,274.0
589.0,145.0,321.0
662.0,138.0,311.0
694.0,138.0,300.0
579.0,134.0,279.0
464.0,128.0,292.0
450.0,129.0,364.0
428.0,129.0,391.0
379.0,125.0,437.0
403.0,126.0,469.0
378.0,126.0,477.0
399.0,131.0,523.0
407.0,133.0,512.0
400.0,130.0,519.0
377.0,126.0,501.0
377.0,126.0,505.0
381.0,126.0,520.0
367.0,126.0,584.0
369.0,124.0,630.0
357.0,130.0,712.0
350.0,130.0,830.0
329.0,129.0,923.0
325.0,123.0,1023.0
311.0,125.0,1023.0
338.0,129.0,1023.0
331.0,124.0,1023.0
276.0,123.0,938.0
319.0,125.0,908.0
289.0,125.0,823.0
285.0,123.0,817.0
250.0,126.0,761.0
237.0,125.0,681.0
276.0,124.0,622.0
331.0,129.0,577.0
295.0,122.0,510.0
298.0,125.0,484.0
291.0,124.0,447.0
302.0,125.0,376.0
307.0,127.0,294.0
289.0,121.0,254.0
286.0,118.0,262.0
291.0,126.0,251.0
295.0,120.0,244.0
265.0,127.0,222.0
261.0,126.0,247.0
257.0,123.0,232.0
258.0,121.0,228.0
275.0,118.0,220.0
264.0,121.0,246.0
315.0,127.0,244.0
252.0,122.0,244.0
263.0,124.0,258.0
268.0,119.0,263.0
257.0,121.0,269.0
300.0,122.0,258.0
304.0,119.0,257.0
319.0,127.0,268.0
298.0,121.0,259.0
282.0,119.0,264.0
317.0,121.0,256.0
302.0,122.0,262.0
292.0,123.0,246.0
295.0,121.0,260.0
283.0,123.0,300.0
302.0,120.0,291.0
310.0,123.0,318.0
307.0,124.0,295.0
285.0,120.0,303.0
263.0,118.0,278.0
268.0,117.0,286.0
324.0,117.0,294.0
225.0,121.0,277.0
143.0,115.0,127.0
139.0,114.0,129.0
141.0,117.0,129.0
136.0,114.0,122.0
140.0,119.0,127.0
137.0,117.0,126.0
137.0,116.0,127.0
141.0,119.0,131.0
137.0,113.0,123.0
138.0,116.0,125.0
138.0,114.0,127.0
134.0,113.0,125.0
142.0,121.0,135.0
132.0,114.0,128.0
135.0,118.0,133.0
140.0,117.0,134.0
137.0,116.0,141.0
143.0,118.0,142.0
146.0,117.0,158.0
173.0,124.0,191.0
175.0,123.0,257.0
206.0,130.0,285.0
217.0,130.0,296.0
247.0,128.0,301.0
273.0,130.0,311.0
298.0,125.0,324.0
314.0,122.0,328.0
327.0,124.0,309.0
367.0,122.0,303.0
383.0,132.0,314.0
380.0,136.0,303.0
408.0,141.0,310.0
455.0,147.0,335.0
415.0,136.0,358.0
482.0,133.0,361.0
470.0,126.0,326.0
474.0,126.0,323.0
462.0,127.0,379.0
469.0,123.0,502.0
448.0,126.0,609.0
450.0,125.0,693.0
436.0,126.0,663.0
423.0,128.0,737.0
409.0,128.0,745.0
399.0,133.0,814.0
400.0,128.0,847.0
412.0,126.0,916.0
369.0,125.0,964.0
356.0,124.0,1016.0
374.0,130.0,1023.0
348.0,128.0,1023.0
352.0,130.0,1023.0
323.0,128.0,1023.0
331.0,127.0,1023.0
330.0,129.0,1023.0
304.0,125.0,1023.0
327.0,122.0,1023.0
343.0,124.0,1013.0
315.0,124.0,980.0
283.0,132.0,1003.0
245.0,124.0,977.0
270.0,125.0,904.0
284.0,124.0,868.0
273.0,120.0,796.0
233.0,120.0,758.0
244.0,121.0,702.0
243.0,120.0,643.0
259.0,121.0,609.0
256.0,119.0,541.0
256.0,121.0,485.0
244.0,118.0,438.0
300.0,119.0,371.0
277.0,130.0,323.0
247.0,124.0,296.0
233.0,126.0,277.0
218.0,123.0,245.0
244.0,123.0,231.0
264.0,125.0,237.0
279.0,121.0,224.0
243.0,126.0,243.0
250.0,126.0,222.0
235.0,121.0,212.0
206.0,122.0,236.0
201.0,118.0,249.0
184.0,122.0,252.0
192.0,121.0,259.0
209.0,123.0,262.0
217.0,121.0,269.0
233.0,118.0,279.0
206.0,116.0,273.0
205.0,118.0,289.0
230.0,118.0,313.0
261.0,118.0,311.0
214.0,119.0,299.0
221.0,118.0,308.0
232.0,124.0,343.0
222.0,118.0,352.0
260.0,122.0,327.0
229.0,115.0,367.0
229.0,123.0,344.0
140.0,115.0,134.0
138.0,114.0,134.0
146.0,123.0,141.0
136.0,120.0,135.0
136.0,120.0,141.0
136.0,118.0,134.0
135.0,114.0,137.0
139.0,117.0,140.0
136.0,117.0,139.0
134.0,117.0,145.0
136.0,116.0,140.0
139.0,115.0,148.0
140.0,118.0,152.0
138.0,116.0,143.0
137.0,116.0,143.0
135.0,116.0,146.0
133.0,113.0,140.0
136.0,117.0,140.0
134.0,116.0,130.0
133.0,115.0,134.0
130.0,114.0,138.0
128.0,114.0,144.0
128.0,115.0,182.0
121.0,115.0,218.0
139.0,116.0,306.0
139.0,115.0,407.0
174.0,117.0,602.0
180.0,119.0,775.0
191.0,118.0,898.0
243.0,120.0,924.0
288.0,123.0,924.0
340.0,127.0,892.0
372.0,128.0,783.0
414.0,125.0,663.0
420.0,125.0,540.0
428.0,121.0,440.0
509.0,123.0,358.0
560.0,126.0,294.0
571.0,127.0,264.0
565.0,125.0,327.0
511.0,124.0,470.0
574.0,126.0,651.0
616.0,133.0,870.0
632.0,132.0,1023.0
615.0,136.0,1023.0
532.0,131.0,1023.0
478.0,135.0,1023.0
434.0,134.0,1023.0
370.0,130.0,1023.0
301.0,129.0,1023.0
276.0,124.0,1023.0
274.0,122.0,1023.0
263.0,123.0,1023.0
237.0,128.0,1023.0
287.0,127.0,1023.0
246.0,125.0,1023.0
272.0,127.0,1020.0
262.0,133.0,939.0
236.0,130.0,895.0
279.0,127.0,812.0
281.0,123.0,728.0
280.0,124.0,658.0
263.0,123.0,570.0
295.0,122.0,530.0
288.0,124.0,452.0
268.0,127.0,420.0
267.0,127.0,333.0
254.0,123.0,291.0
240.0,120.0,258.0
267.0,124.0,235.0
215.0,122.0,247.0
224.0,123.0,234.0
220.0,123.0,252.0
250.0,120.0,234.0
223.0,125.0,232.0
246.0,120.0,217.0
231.0,121.0,215.0
239.0,121.0,201.0
244.0,125.0,218.0
249.0,124.0,235.0
232.0,121.0,240.0
222.0,121.0,273.0
218.0,122.0,268.0
220.0,120.0,245.0
320.0,130.0,264.0
283.0,124.0,289.0
230.0,118.0,295.0
210.0,117.0,302.0
194.0,117.0,318.0
225.0,119.0,355.0
199.0,117.0,378.0
208.0,115.0,411.0
239.0,119.0,387.0
231.0,119.0,395.0
231.0,119.0,402.0
230.0,118.0,416.0
238.0,118.0,474.0
210.0,117.0,550.0
251.0,120.0,616.0
246.0,120.0,670.0
163.0,187.0,140.0
221.0,167.0,146.0
278.0,157.0,154.0
299.0,161.0,163.0
283.0,154.0,153.0
287.0,151.0,155.0
266.0,152.0,149.0
246.0,149.0,148.0
231.0,147.0,150.0
204.0,140.0,141.0
194.0,138.0,146.0
174.0,136.0,142.0
168.0,138.0,145.0
167.0,135.0,147.0
154.0,126.0,139.0
157.0,120.0,143.0
151.0,117.0,137.0
143.0,115.0,140.0
146.0,119.0,140.0
137.0,117.0,133.0
133.0,115.0,154.0
142.0,118.0,173.0
142.0,118.0,252.0
161.0,123.0,362.0
165.0,120.0,426.0
194.0,119.0,483.0
218.0,125.0,500.0
264.0,128.0,461.0
391.0,133.0,395.0
497.0,136.0,313.0
602.0,137.0,343.0
641.0,133.0,369.0
652.0,129.0,359.0
621.0,131.0,342.0
609.0,134.0,338.0
618.0,135.0,368.0
589.0,133.0,410.0
558.0,130.0,483.0
579.0,132.0,659.0
535.0,127.0,809.0
532.0,125.0,898.0
524.0,125.0,1000.0
506.0,127.0,998.0
517.0,128.0,964.0
477.0,124.0,903.0
451.0,126.0,831.0
425.0,125.0,762.0
393.0,122.0,677.0
365.0,126.0,602.0
340.0,123.0,510.0
317.0,121.0,391.0
296.0,121.0,341.0
289.0,117.0,269.0
302.0,118.0,277.0
279.0,119.0,244.0
262.0,118.0,216.0
255.0,119.0,215.0
259.0,115.0,223.0
280.0,121.0,221.0
255.0,118.0,230.0
241.0,117.0,251.0
256.0,118.0,258.0
231.0,117.0,281.0
230.0,118.0,267.0
241.0,116.0,253.0
246.0,117.0,272.0
241.0,117.0,279.0
250.0,118.0,257.0
222.0,118.0,256.0
234.0,120.0,245.0
237.0,118.0,263.0
237.0,121.0,267.0
228.0,122.0,276.0
247.0,122.0,289.0
236.0,121.0,272.0
241.0,122.0,281.0
268.0,123.0,277.0
244.0,123.0,289.0
229.0,121.0,287.0
219.0,120.0,272.0
213.0,122.0,282.0
208.0,121.0,271.0
205.0,122.0,276.0
228.0,125.0,280.0
220.0,122.0,276.0
205.0,120.0,288.0
206.0,122.0,281.0
200.0,126.0,265.0
206.0,118.0,274.0
192.0,119.0,274.0
186.0,118.0,281.0
226.0,122.0,278.0
192.0,120.0,274.0
198.0,119.0,269.0
186.0,120.0,265.0
214.0,119.0,276.0
214.0,118.0,291.0
196.0,117.0,309.0
194.0,119.0,335.0
169.0,120.0,341.0
133.0,114.0,141.0
139.0,116.0,142.0
134.0,113.0,138.0
140.0,116.0,143.0
137.0,115.0,135.0
138.0,113.0,143.0
140.0,114.0,148.0
137.0,112.0,149.0
140.0,115.0,164.0
137.0,114.0,151.0
137.0,115.0,147.0
137.0,116.0,149.0
135.0,113.0,145.0
137.0,118.0,151.0
135.0,115.0,146.0
132.0,115.0,151.0
135.0,119.0,152.0
129.0,114.0,149.0
134.0,118.0,181.0
132.0,117.0,168.0
137.0,118.0,209.0
148.0,122.0,250.0
156.0,122.0,353.0
199.0,128.0,497.0
197.0,136.0,574.0
220.0,140.0,671.0
301.0,155.0,765.0
367.0,167.0,870.0
475.0,170.0,1004.0
543.0,161.0,1002.0
596.0,155.0,940.0
612.0,149.0,794.0
575.0,149.0,651.0
536.0,168.0,517.0
551.0,192.0,405.0
570.0,177.0,352.0
545.0,157.0,320.0
511.0,149.0,347.0
481.0,146.0,343.0
424.0,146.0,360.0
409.0,141.0,414.0
400.0,138.0,729.0
372.0,134.0,1023.0
374.0,136.0,1023.0
344.0,136.0,1023.0
309.0,132.0,1023.0
300.0,130.0,1023.0
287.0,129.0,1023.0
302.0,130.0,1023.0
284.0,125.0,1023.0
331.0,124.0,1023.0
283.0,127.0,1023.0
287.0,126.0,966.0
303.0,125.0,938.0
297.0,121.0,893.0
290.0,124.0,842.0
276.0,130.0,812.0
255.0,128.0,724.0
288.0,125.0,649.0
272.0,127.0,581.0
241.0,121.0,507.0
248.0,124.0,449.0
264.0,125.0,389.0
261.0,120.0,311.0
241.0,121.0,280.0
253.0,117.0,245.0
244.0,125.0,267.0
222.0,119.0,264.0
247.0,121.0,243.0
249.0,123.0,235.0
261.0,122.0,235.0
288.0,128.0,257.0
265.0,123.0,266.0
273.0,120.0,277.0
252.0,119.0,311.0
271.0,117.0,316.0
272.0,126.0,366.0
276.0,126.0,348.0
284.0,125.0,366.0
283.0,130.0,353.0
273.0,124.0,388.0
266.0,132.0,371.0
264.0,127.0,389.0
262.0,127.0,377.0
254.0,130.0,373.0
285.0,127.0,390.0
300.0,133.0,421.0
251.0,125.0,409.0
243.0,122.0,381.0
233.0,123.0,380.0
197.0,120.0,391.0
206.0,122.0,393.0
228.0,120.0,386.0
249.0,116.0,380.0
231.0,118.0,360.0
241.0,116.0,372.0
220.0,122.0,375.0
253.0,122.0,378.0
226.0,122.0,396.0
216.0,122.0,382.0
140.0,121.0,131.0
137.0,119.0,125.0
135.0,117.0,125.0
134.0,117.0,119.0
133.0,117.0,116.0
135.0,119.0,123.0
134.0,119.0,122.0
133.0,122.0,125.0
134.0,121.0,123.0
136.0,122.0,124.0
139.0,123.0,130.0
142.0,123.0,128.0
139.0,122.0,123.0
138.0,122.0,122.0
139.0,120.0,120.0
142.0,125.0,123.0
139.0,124.0,133.0
138.0,120.0,134.0
138.0,122.0,135.0
143.0,119.0,140.0
183.0,123.0,204.0
201.0,128.0,347.0
218.0,140.0,542.0
284.0,145.0,767.0
264.0,153.0,971.0
368.0,155.0,1023.0
564.0,157.0,1023.0
545.0,150.0,888.0
491.0,145.0,675.0
475.0,147.0,496.0
432.0,150.0,388.0
419.0,144.0,312.0
383.0,141.0,310.0
361.0,140.0,319.0
325.0,138.0,310.0
315.0,135.0,288.0
299.0,133.0,253.0
308.0,134.0,258.0
298.0,127.0,259.0
316.0,128.0,261.0
300.0,128.0,243.0
319.0,131.0,229.0
302.0,126.0,205.0
288.0,125.0,201.0
271.0,125.0,208.0
279.0,121.0,222.0
260.0,119.0,205.0
274.0,128.0,224.0
272.0,126.0,220.0
279.0,126.0,222.0
257.0,128.0,229.0
233.0,120.0,222.0
266.0,126.0,218.0
251.0,124.0,205.0
249.0,123.0,206.0
249.0,123.0,236.0
243.0,124.0,214.0
258.0,121.0,202.0
269.0,118.0,221.0
290.0,121.0,256.0
252.0,125.0,277.0
260.0,122.0,238.0
245.0,128.0,232.0
247.0,122.0,214.0
282.0,124.0,239.0
253.0,125.0,261.0
265.0,124.0,239.0
239.0,126.0,226.0
259.0,128.0,217.0
290.0,124.0,202.0
338.0,127.0,209.0
301.0,128.0,200.0
255.0,130.0,227.0
278.0,128.0,217.0
266.0,123.0,211.0
246.0,121.0,224.0
220.0,122.0,215.0
211.0,120.0,234.0
200.0,121.0,231.0
201.0,121.0,225.0
211.0,123.0,237.0
227.0,123.0,246.0
217.0,121.0,239.0
217.0,121.0,235.0
228.0,119.0,246.0
217.0,119.0,219.0
211.0,119.0,218.0
232.0,120.0,195.0
203.0,117.0,198.0
222.0,121.0,210.0
231.0,126.0,241.0
224.0,121.0,230.0
220.0,122.0,217.0
203.0,121.0,214.0
197.0,120.0,245.0
183.0,123.0,243.0
212.0,125.0,252.0
196.0,122.0,255.0
180.0,118.0,269.0
181.0,118.0,257.0
131.0,116.0,128.0
141.0,123.0,138.0
130.0,117.0,128.0
130.0,118.0,129.0
129.0,116.0,127.0
127.0,116.0,128.0
131.0,119.0,128.0
127.0,117.0,123.0
127.0,119.0,122.0
126.0,119.0,126.0
126.0,117.0,132.0
129.0,121.0,132.0
131.0,119.0,137.0
132.0,118.0,136.0
135.0,119.0,176.0
145.0,118.0,250.0
184.0,121.0,350.0
200.0,123.0,465.0
220.0,123.0,621.0
258.0,130.0,803.0
284.0,134.0,919.0
610.0,149.0,867.0
643.0,156.0,705.0
536.0,146.0,486.0
475.0,140.0,373.0
466.0,134.0,344.0
440.0,135.0,301.0
417.0,129.0,291.0
439.0,127.0,280.0
416.0,131.0,252.0
391.0,129.0,218.0
428.0,130.0,241.0
408.0,128.0,257.0
402.0,125.0,226.0
397.0,126.0,232.0
374.0,128.0,214.0
378.0,126.0,229.0
385.0,131.0,240.0
353.0,127.0,221.0
372.0,126.0,248.0
374.0,124.0,235.0
356.0,123.0,244.0
369.0,121.0,254.0
346.0,120.0,261.0
352.0,122.0,234.0
311.0,122.0,221.0
288.0,123.0,210.0
298.0,123.0,193.0
301.0,122.0,210.0
305.0,121.0,209.0
303.0,122.0,211.0
330.0,128.0,248.0
345.0,125.0,251.0
319.0,123.0,260.0
279.0,122.0,247.0
279.0,121.0,234.0
271.0,127.0,258.0
253.0,126.0,241.0
273.0,122.0,238.0
274.0,124.0,218.0
265.0,124.0,223.0
257.0,128.0,233.0
276.0,129.0,227.0
269.0,126.0,253.0
287.0,130.0,255.0
274.0,122.0,245.0
257.0,124.0,231.0
240.0,121.0,244.0
258.0,124.0,253.0
245.0,122.0,249.0
237.0,123.0,222.0
250.0,126.0,249.0
247.0,122.0,273.0
287.0,122.0,259.0
245.0,123.0,237.0
263.0,123.0,206.0
256.0,126.0,242.0
234.0,126.0,227.0
235.0,124.0,224.0
231.0,125.0,232.0
234.0,123.0,217.0
242.0,132.0,268.0
234.0,128.0,241.0
255.0,123.0,203.0
242.0,120.0,196.0
225.0,120.0,226.0
221.0,122.0,262.0
222.0,123.0,211.0
252.0,119.0,219.0
235.0,120.0,239.0
248.0,122.0,202.0
231.0,126.0,207.0
215.0,121.0,236.0
203.0,117.0,209.0
200.0,119.0,225.0
238.0,123.0,216.0
247.0,124.0,256.0
240.0,121.0,242.0
226.0,120.0,232.0
221.0,120.0,220.0
138.0,116.0,140.0
141.0,118.0,141.0
138.0,115.0,134.0
142.0,120.0,138.0
141.0,116.0,131.0
143.0,118.0,138.0
143.0,119.0,135.0
140.0,116.0,133.0
146.0,128.0,140.0
145.0,149.0,135.0
143.0,156.0,136.0
143.0,151.0,138.0
140.0,138.0,132.0
144.0,134.0,138.0
144.0,125.0,136.0
143.0,121.0,141.0
144.0,120.0,140.0
138.0,115.0,138.0
139.0,117.0,142.0
138.0,115.0,140.0
136.0,113.0,146.0
136.0,116.0,146.0
133.0,112.0,141.0
137.0,118.0,149.0
135.0,116.0,148.0
134.0,114.0,158.0
133.0,115.0,151.0
132.0,111.0,151.0
135.0,115.0,153.0
136.0,114.0,149.0
135.0,114.0,154.0
137.0,115.0,153.0
135.0,113.0,153.0
143.0,120.0,165.0
134.0,117.0,156.0
134.0,115.0,159.0
137.0,120.0,152.0
145.0,123.0,165.0
152.0,131.0,211.0
156.0,130.0,267.0
231.0,135.0,346.0
338.0,139.0,355.0
420.0,134.0,314.0
504.0,141.0,322.0
581.0,136.0,401.0
599.0,134.0,560.0
627.0,135.0,703.0
578.0,128.0,794.0
491.0,129.0,882.0
446.0,127.0,961.0
394.0,129.0,1023.0
402.0,125.0,1023.0
394.0,125.0,1023.0
425.0,133.0,1023.0
385.0,125.0,1023.0
392.0,130.0,1023.0
371.0,131.0,1023.0
373.0,133.0,1023.0
375.0,137.0,1023.0
334.0,132.0,1023.0
308.0,127.0,1023.0
278.0,131.0,1023.0
265.0,126.0,1023.0
271.0,127.0,884.0
296.0,123.0,718.0
293.0,125.0,577.0
302.0,128.0,467.0
304.0,124.0,391.0
321.0,127.0,332.0
286.0,126.0,262.0
285.0,122.0,241.0
274.0,123.0,227.0
233.0,124.0,226.0
215.0,131.0,215.0
263.0,124.0,215.0
271.0,124.0,275.0
247.0,121.0,276.0
252.0,119.0,275.0
267.0,120.0,273.0
234.0,121.0,310.0
229.0,116.0,359.0
217.0,120.0,393.0
237.0,113.0,434.0
225.0,114.0,492.0
214.0,116.0,533.0
213.0,118.0,600.0
183.0,118.0,641.0
199.0,121.0,684.0
192.0,121.0,733.0
210.0,119.0,816.0
223.0,118.0,875.0
232.0,127.0,904.0
203.0,121.0,881.0
182.0,119.0,859.0
184.0,119.0,834.0
192.0,116.0,791.0
193.0,120.0,759.0
194.0,119.0,733.0
194.0,116.0,670.0
191.0,114.0,635.0
140.0,115.0,134.0
138.0,114.0,134.0
146.0,123.0,141.0
136.0,120.0,135.0
136.0,120.0,141.0
136.0,118.0,134.0
135.0,114.0,137.0
139.0,117.0,140.0
136.0,117.0,139.0
134.0,117.0,145.0
136.0,116.0,140.0
139.0,115.0,148.0
140.0,118.0,152.0
138.0,116.0,143.0
137.0,116.0,143.0
135.0,116.0,146.0
133.0,113.0,140.0
136.0,117.0,140.0
134.0,116.0,130.0
133.0,115.0,134.0
130.0,114.0,138.0
128.0,114.0,144.0
128.0,115.0,182.0
121.0,115.0,218.0
139.0,116.0,306.0
139.0,115.0,407.0
174.0,117.0,602.0
180.0,119.0,775.0
191.0,118.0,898.0
243.0,120.0,924.0
288.0,123.0,924.0
340.0,127.0,892.0
372.0,128.0,783.0
414.0,125.0,663.0
420.0,125.0,540.0
428.0,121.0,440.0
509.0,123.0,358.0
560.0,126.0,294.0
571.0,127.0,264.0
565.0,125.0,327.0
511.0,124.0,470.0
574.0,126.0,651.0
616.0,133.0,870.0
632.0,132.0,1023.0
615.0,136.0,1023.0
532.0,131.0,1023.0
478.0,135.0,1023.0
434.0,134.0,1023.0
370.0,130.0,1023.0
301.0,129.0,1023.0
276.0,124.0,1023.0
274.0,122.0,1023.0
263.0,123.0,1023.0
237.0,128.0,1023.0
287.0,127.0,1023.0
246.0,125.0,1023.0
272.0,127.0,1020.0
262.0,133.0,939.0
236.0,130.0,895.0
279.0,127.0,812.0
281.0,123.0,728.0
280.0,124.0,658.0
263.0,123.0,570.0
295.0,122.0,530.0
288.0,124.0,452.0
268.0,127.0,420.0
267.0,127.0,333.0
254.0,123.0,291.0
240.0,120.0,258.0
267.0,124.0,235.0
215.0,122.0,247.0
224.0,123.0,234.0
220.0,123.0,252.0
250.0,120.0,234.0
223.0,125.0,232.0
246.0,120.0,217.0
231.0,121.0,215.0
239.0,121.0,201.0
244.0,125.0,218.0
249.0,124.0,235.0
232.0,121.0,240.0
222.0,121.0,273.0
218.0,122.0,268.0
220.0,120.0,245.0
320.0,130.0,264.0
283.0,124.0,289.0
230.0,118.0,295.0
210.0,117.0,302.0
194.0,117.0,318.0
225.0,119.0,355.0
199.0,117.0,378.0
208.0,115.0,411.0
239.0,119.0,387.0
231.0,119.0,395.0
231.0,119.0,402.0
230.0,118.0,416.0
238.0,118.0,474.0
210.0,117.0,550.0
251.0,120.0,616.0
246.0,120.0,670.0
135.0,119.0,149.0
135.0,119.0,150.0
133.0,116.0,148.0
131.0,117.0,145.0
130.0,114.0,142.0
134.0,118.0,150.0
131.0,116.0,142.0
130.0,115.0,149.0
131.0,116.0,148.0
129.0,114.0,151.0
133.0,116.0,152.0
133.0,116.0,153.0
131.0,113.0,152.0
130.0,115.0,150.0
129.0,113.0,148.0
131.0,116.0,153.0
128.0,114.0,149.0
131.0,116.0,155.0
134.0,120.0,152.0
153.0,117.0,167.0
179.0,127.0,188.0
203.0,130.0,244.0
262.0,134.0,318.0
336.0,139.0,344.0
335.0,140.0,329.0
343.0,144.0,298.0
312.0,138.0,308.0
292.0,142.0,345.0
309.0,135.0,397.0
328.0,144.0,498.0
324.0,136.0,572.0
294.0,133.0,633.0
282.0,131.0,631.0
293.0,127.0,668.0
259.0,126.0,637.0
252.0,127.0,626.0
248.0,126.0,610.0
238.0,128.0,595.0
252.0,124.0,579.0
299.0,121.0,561.0
302.0,127.0,585.0
301.0,129.0,559.0
291.0,125.0,539.0
278.0,126.0,522.0
281.0,128.0,516.0
294.0,130.0,502.0
297.0,129.0,479.0
272.0,126.0,430.0
262.0,129.0,409.0
263.0,127.0,392.0
252.0,127.0,333.0
244.0,126.0,344.0
245.0,127.0,314.0
250.0,125.0,268.0
253.0,127.0,276.0
236.0,124.0,281.0
238.0,119.0,239.0
255.0,119.0,214.0
234.0,123.0,215.0
229.0,123.0,222.0
222.0,127.0,239.0
237.0,123.0,241.0
260.0,124.0,260.0
267.0,124.0,284.0
231.0,121.0,294.0
203.0,124.0,313.0
235.0,123.0,306.0
236.0,121.0,310.0
223.0,122.0,306.0
220.0,121.0,316.0
237.0,126.0,334.0
255.0,120.0,343.0
273.0,119.0,351.0
238.0,120.0,336.0
275.0,123.0,351.0
285.0,124.0,335.0
242.0,121.0,349.0
247.0,120.0,344.0
232.0,120.0,336.0
216.0,120.0,341.0
225.0,123.0,345.0
220.0,121.0,326.0
202.0,119.0,319.0
201.0,119.0,318.0
219.0,120.0,302.0
216.0,120.0,303.0
224.0,116.0,291.0
229.0,120.0,280.0
205.0,121.0,280.0
225.0,120.0,286.0
277.0,122.0,289.0
258.0,121.0,275.0
232.0,121.0,274.0
235.0,121.0,264.0
241.0,119.0,251.0
234.0,122.0,263.0
241.0,118.0,273.0
250.0,119.0,296.0
234.0,119.0,291.0
241.0,116.0,313.0
133.0,114.0,141.0
139.0,116.0,142.0
134.0,113.0,138.0
140.0,116.0,143.0
137.0,115.0,135.0
138.0,113.0,143.0
140.0,114.0,148.0
137.0,112.0,149.0
140.0,115.0,164.0
137.0,114.0,151.0
137.0,115.0,147.0
137.0,116.0,149.0
135.0,113.0,145.0
137.0,118.0,151.0
135.0,115.0,146.0
132.0,115.0,151.0
135.0,119.0,152.0
129.0,114.0,149.0
134.0,118.0,181.0
132.0,117.0,168.0
137.0,118.0,209.0
148.0,122.0,250.0
156.0,122.0,353.0
199.0,128.0,497.0
197.0,136.0,574.0
220.0,140.0,671.0
301.0,155.0,765.0
367.0,167.0,870.0
475.0,170.0,1004.0
543.0,161.0,1002.0
596.0,155.0,940.0
612.0,149.0,794.0
575.0,149.0,651.0
536.0,168.0,517.0
551.0,192.0,405.0
570.0,177.0,352.0
545.0,157.0,320.0
511.0,149.0,347.0
481.0,146.0,343.0
424.0,146.0,360.0
409.0,141.0,414.0
400.0,138.0,729.0
372.0,134.0,1023.0
374.0,136.0,1023.0
344.0,136.0,1023.0
309.0,132.0,1023.0
300.0,130.0,1023.0
287.0,129.0,1023.0
302.0,130.0,1023.0
284.0,125.0,1023.0
331.0,124.0,1023.0
283.0,127.0,1023.0
287.0,126.0,966.0
303.0,125.0,938.0
297.0,121.0,893.0
290.0,124.0,842.0
276.0,130.0,812.0
255.0,128.0,724.0
288.0,125.0,649.0
272.0,127.0,581.0
241.0,121.0,507.0
248.0,124.0,449.0
264.0,125.0,389.0
261.0,120.0,311.0
241.0,121.0,280.0
253.0,117.0,245.0
244.0,125.0,267.0
222.0,119.0,264.0
247.0,121.0,243.0
249.0,123.0,235.0
261.0,122.0,235.0
288.0,128.0,257.0
265.0,123.0,266.0
273.0,120.0,277.0
252.0,119.0,311.0
271.0,117.0,316.0
272.0,126.0,366.0
276.0,126.0,348.0
284.0,125.0,366.0
283.0,130.0,353.0
273.0,124.0,388.0
266.0,132.0,371.0
264.0,127.0,389.0
262.0,127.0,377.0
254.0,130.0,373.0
285.0,127.0,390.0
300.0,133.0,421.0
251.0,125.0,409.0
243.0,122.0,381.0
233.0,123.0,380.0
197.0,120.0,391.0
206.0,122.0,393.0
228.0,120.0,386.0
249.0,116.0,380.0
231.0,118.0,360.0
241.0,116.0,372.0
220.0,122.0,375.0
253.0,122.0,378.0
226.0,122.0,396.0
216.0,122.0,382.0
142.0,116.0,144.0
141.0,114.0,152.0
142.0,114.0,148.0
138.0,113.0,146.0
143.0,119.0,151.0
137.0,116.0,145.0
137.0,117.0,148.0
136.0,117.0,147.0
133.0,114.0,143.0
138.0,119.0,150.0
135.0,117.0,143.0
132.0,116.0,147.0
132.0,117.0,144.0
128.0,115.0,145.0
133.0,119.0,151.0
129.0,115.0,147.0
130.0,115.0,152.0
131.0,118.0,151.0
129.0,114.0,151.0
133.0,118.0,160.0
132.0,115.0,152.0
131.0,116.0,150.0
132.0,115.0,162.0
128.0,113.0,157.0
143.0,121.0,153.0
145.0,119.0,141.0
141.0,116.0,144.0
138.0,118.0,143.0
133.0,116.0,135.0
135.0,125.0,145.0
136.0,129.0,140.0
140.0,182.0,142.0
143.0,203.0,153.0
165.0,170.0,183.0
184.0,153.0,249.0
259.0,142.0,335.0
390.0,136.0,392.0
410.0,132.0,406.0
380.0,129.0,364.0
335.0,135.0,323.0
318.0,130.0,309.0
275.0,128.0,392.0
251.0,128.0,481.0
219.0,132.0,565.0
230.0,126.0,646.0
273.0,130.0,681.0
267.0,128.0,710.0
291.0,128.0,707.0
262.0,121.0,705.0
312.0,129.0,676.0
274.0,131.0,676.0
270.0,130.0,672.0
295.0,127.0,653.0
312.0,121.0,632.0
284.0,127.0,655.0
283.0,124.0,659.0
300.0,128.0,628.0
304.0,128.0,641.0
297.0,126.0,643.0
272.0,126.0,673.0
282.0,121.0,649.0
250.0,125.0,621.0
246.0,122.0,600.0
288.0,126.0,536.0
269.0,127.0,466.0
244.0,124.0,415.0
250.0,126.0,362.0
228.0,124.0,315.0
234.0,121.0,283.0
236.0,122.0,245.0
234.0,125.0,231.0
222.0,120.0,217.0
239.0,118.0,225.0
224.0,118.0,231.0
238.0,118.0,234.0
260.0,118.0,244.0
294.0,121.0,247.0
298.0,122.0,269.0
279.0,123.0,300.0
263.0,123.0,334.0
260.0,121.0,343.0
295.0,121.0,354.0
279.0,117.0,352.0
246.0,117.0,367.0
274.0,120.0,369.0
243.0,122.0,367.0
236.0,126.0,376.0
249.0,131.0,371.0
264.0,133.0,406.0
240.0,135.0,390.0
230.0,131.0,383.0
248.0,131.0,368.0
280.0,131.0,369.0
280.0,129.0,379.0
244.0,130.0,363.0
255.0,126.0,372.0
270.0,128.0,350.0
251.0,122.0,350.0
241.0,118.0,354.0
218.0,120.0,353.0
135.0,119.0,149.0
135.0,119.0,150.0
133.0,116.0,148.0
131.0,117.0,145.0
130.0,114.0,142.0
134.0,118.0,150.0
131.0,116.0,142.0
130.0,115.0,149.0
131.0,116.0,148.0
129.0,114.0,151.0
133.0,116.0,152.0
133.0,116.0,153.0
131.0,113.0,152.0
130.0,115.0,150.0
129.0,113.0,148.0
131.0,116.0,153.0
128.0,114.0,149.0
131.0,116.0,155.0
134.0,120.0,152.0
153.0,117.0,167.0
179.0,127.0,188.0
203.0,130.0,244.0
262.0,134.0,318.0
336.0,139.0,344.0
335.0,140.0,329.0
343.0,144.0,298.0
312.0,138.0,308.0
292.0,142.0,345.0
309.0,135.0,397.0
328.0,144.0,498.0
324.0,136.0,572.0
294.0,133.0,633.0
282.0,131.0,631.0
293.0,127.0,668.0
259.0,126.0,637.0
252.0,127.0,626.0
248.0,126.0,610.0
238.0,128.0,595.0
252.0,124.0,579.0
299.0,121.0,561.0
302.0,127.0,585.0
301.0,129.0,559.0
291.0,125.0,539.0
278.0,126.0,522.0
281.0,128.0,516.0
294.0,130.0,502.0
297.0,129.0,479.0
272.0,126.0,430.0
262.0,129.0,409.0
263.0,127.0,392.0
252.0,127.0,333.0
244.0,126.0,344.0
245.0,127.0,314.0
250.0,125.0,268.0
253.0,127.0,276.0
236.0,124.0,281.0
238.0,119.0,239.0
255.0,119.0,214.0
234.0,123.0,215.0
229.0,123.0,222.0
222.0,127.0,239.0
237.0,123.0,241.0
260.0,124.0,260.0
267.0,124.0,284.0
231.0,121.0,294.0
203.0,124.0,313.0
235.0,123.0,306.0
236.0,121.0,310.0
223.0,122.0,306.0
220.0,121.0,316.0
237.0,126.0,334.0
255.0,120.0,343.0
273.0,119.0,351.0
238.0,120.0,336.0
275.0,123.0,351.0
285.0,124.0,335.0
242.0,121.0,349.0
247.0,120.0,344.0
232.0,120.0,336.0
216.0,120.0,341.0
225.0,123.0,345.0
220.0,121.0,326.0
202.0,119.0,319.0
201.0,119.0,318.0
219.0,120.0,302.0
216.0,120.0,303.0
224.0,116.0,291.0
229.0,120.0,280.0
205.0,121.0,280.0
225.0,120.0,286.0
277.0,122.0,289.0
258.0,121.0,275.0
232.0,121.0,274.0
235.0,121.0,264.0
241.0,119.0,251.0
234.0,122.0,263.0
241.0,118.0,273.0
250.0,119.0,296.0
234.0,119.0,291.0
241.0,116.0,313.0
138.0,114.0,169.0
141.0,117.0,176.0
143.0,115.0,169.0
140.0,114.0,174.0
143.0,117.0,175.0
141.0,115.0,170.0
143.0,120.0,177.0
141.0,118.0,170.0
139.0,119.0,177.0
143.0,125.0,180.0
135.0,115.0,175.0
138.0,120.0,183.0
138.0,119.0,173.0
138.0,117.0,178.0
140.0,117.0,173.0
135.0,119.0,171.0
142.0,120.0,202.0
160.0,118.0,244.0
181.0,123.0,267.0
196.0,127.0,320.0
233.0,127.0,348.0
239.0,135.0,363.0
259.0,133.0,343.0
267.0,136.0,352.0
247.0,134.0,342.0
268.0,128.0,371.0
312.0,131.0,313.0
433.0,134.0,254.0
609.0,134.0,320.0
708.0,134.0,435.0
767.0,132.0,593.0
800.0,134.0,745.0
782.0,133.0,837.0
774.0,131.0,985.0
719.0,129.0,1023.0
637.0,134.0,1023.0
536.0,136.0,1023.0
414.0,133.0,1023.0
360.0,133.0,1023.0
327.0,133.0,1023.0
317.0,127.0,1023.0
269.0,128.0,1023.0
270.0,128.0,1023.0
270.0,129.0,1023.0
283.0,133.0,936.0
347.0,130.0,873.0
311.0,132.0,787.0
289.0,128.0,734.0
290.0,130.0,680.0
304.0,131.0,614.0
321.0,123.0,559.0
304.0,125.0,516.0
298.0,126.0,463.0
294.0,126.0,443.0
282.0,126.0,433.0
259.0,121.0,434.0
291.0,128.0,418.0
246.0,123.0,412.0
223.0,126.0,395.0
258.0,134.0,373.0
214.0,130.0,371.0
204.0,131.0,372.0
212.0,126.0,367.0
202.0,125.0,377.0
215.0,128.0,544.0
202.0,124.0,744.0
192.0,123.0,950.0
203.0,120.0,1023.0
207.0,122.0,1023.0
202.0,127.0,1023.0
203.0,123.0,1023.0
222.0,122.0,1023.0
210.0,123.0,1023.0
191.0,122.0,1023.0
182.0,123.0,1023.0
171.0,120.0,1023.0
186.0,124.0,1023.0
220.0,125.0,1023.0
195.0,121.0,1023.0
184.0,125.0,1023.0
170.0,124.0,1023.0
186.0,127.0,1023.0
205.0,122.0,1023.0
199.0,127.0,1023.0
198.0,125.0,1023.0
196.0,120.0,1023.0
212.0,125.0,1023.0
169.0,119.0,1023.0
189.0,122.0,1023.0
181.0,120.0,1023.0
207.0,120.0,1023.0
206.0,120.0,912.0
207.0,119.0,798.0
190.0,121.0,665.0
196.0,120.0,576.0
179.0,118.0,487.0
197.0,119.0,423.0
190.0,116.0,329.0
214.0,117.0,377.0
198.0,123.0,538.0
136.0,116.0,162.0
135.0,114.0,156.0
134.0,114.0,157.0
137.0,117.0,158.0
131.0,113.0,153.0
136.0,118.0,163.0
134.0,115.0,157.0
134.0,114.0,160.0
134.0,114.0,158.0
130.0,113.0,155.0
136.0,117.0,160.0
132.0,115.0,154.0
132.0,113.0,160.0
130.0,115.0,156.0
129.0,112.0,150.0
136.0,115.0,155.0
132.0,113.0,150.0
131.0,114.0,156.0
133.0,121.0,161.0
125.0,113.0,179.0
140.0,115.0,191.0
149.0,116.0,284.0
187.0,117.0,623.0
242.0,120.0,807.0
343.0,119.0,879.0
385.0,128.0,877.0
466.0,125.0,873.0
524.0,121.0,824.0
547.0,126.0,774.0
585.0,126.0,702.0
611.0,128.0,657.0
618.0,127.0,558.0
654.0,137.0,464.0
684.0,138.0,364.0
638.0,135.0,301.0
612.0,133.0,288.0
562.0,128.0,295.0
514.0,123.0,296.0
511.0,124.0,323.0
463.0,124.0,322.0
437.0,129.0,324.0
423.0,126.0,345.0
400.0,125.0,331.0
368.0,126.0,322.0
360.0,124.0,311.0
311.0,131.0,273.0
309.0,128.0,282.0
269.0,124.0,287.0
238.0,121.0,288.0
222.0,121.0,289.0
248.0,127.0,249.0
256.0,124.0,241.0
271.0,121.0,229.0
241.0,119.0,220.0
228.0,121.0,215.0
217.0,130.0,210.0
221.0,126.0,203.0
257.0,123.0,219.0
236.0,121.0,232.0
252.0,120.0,259.0
249.0,119.0,258.0
251.0,122.0,246.0
209.0,120.0,260.0
217.0,122.0,249.0
239.0,120.0,245.0
234.0,123.0,256.0
216.0,120.0,244.0
251.0,121.0,263.0
264.0,122.0,253.0
247.0,120.0,258.0
248.0,123.0,257.0
265.0,122.0,251.0
246.0,119.0,251.0
242.0,121.0,237.0
212.0,119.0,237.0
255.0,123.0,241.0
239.0,123.0,241.0
219.0,123.0,253.0
231.0,122.0,236.0
218.0,122.0,238.0
248.0,128.0,242.0
223.0,126.0,246.0
209.0,118.0,272.0
195.0,122.0,276.0
194.0,120.0,282.0
207.0,128.0,253.0
244.0,127.0,248.0
243.0,122.0,246.0
220.0,120.0,255.0
222.0,120.0,255.0
192.0,119.0,262.0
236.0,123.0,253.0
219.0,117.0,262.0
210.0,119.0,241.0
203.0,116.0,240.0
266.0,122.0,232.0
261.0,120.0,232.0
220.0,120.0,261.0
223.0,118.0,244.0
211.0,120.0,244.0
138.0,119.0,128.0
139.0,119.0,133.0
135.0,117.0,130.0
138.0,118.0,134.0
134.0,117.0,130.0
135.0,119.0,131.0
133.0,119.0,130.0
131.0,117.0,125.0
140.0,125.0,134.0
134.0,123.0,131.0
136.0,124.0,131.0
133.0,123.0,128.0
130.0,120.0,123.0
143.0,129.0,128.0
138.0,118.0,122.0
143.0,117.0,136.0
152.0,120.0,196.0
166.0,121.0,357.0
190.0,126.0,577.0
185.0,126.0,790.0
174.0,125.0,928.0
206.0,132.0,1023.0
206.0,130.0,1023.0
180.0,133.0,1023.0
182.0,132.0,1023.0
205.0,133.0,1023.0
220.0,133.0,1023.0
225.0,135.0,1023.0
242.0,138.0,1013.0
247.0,135.0,909.0
250.0,129.0,700.0
320.0,133.0,536.0
406.0,129.0,382.0
453.0,138.0,326.0
409.0,132.0,316.0
366.0,127.0,312.0
385.0,126.0,322.0
381.0,127.0,321.0
370.0,129.0,343.0
366.0,130.0,380.0
363.0,129.0,400.0
357.0,132.0,419.0
386.0,128.0,397.0
406.0,133.0,412.0
365.0,127.0,387.0
340.0,130.0,350.0
299.0,126.0,392.0
315.0,125.0,379.0
281.0,128.0,369.0
246.0,123.0,328.0
245.0,122.0,316.0
246.0,124.0,306.0
255.0,121.0,282.0
316.0,131.0,276.0
319.0,129.0,281.0
291.0,125.0,281.0
281.0,127.0,298.0
256.0,123.0,273.0
253.0,125.0,269.0
303.0,129.0,304.0
266.0,126.0,263.0
248.0,127.0,249.0
266.0,124.0,277.0
258.0,127.0,268.0
239.0,125.0,235.0
276.0,126.0,237.0
302.0,132.0,248.0
324.0,128.0,233.0
271.0,127.0,226.0
327.0,126.0,226.0
334.0,129.0,224.0
322.0,132.0,266.0
358.0,124.0,226.0
324.0,129.0,226.0
309.0,132.0,227.0
324.0,131.0,234.0
311.0,131.0,266.0
302.0,127.0,263.0
267.0,131.0,259.0
258.0,127.0,268.0
277.0,125.0,262.0
328.0,126.0,272.0
293.0,123.0,270.0
300.0,126.0,269.0
278.0,122.0,268.0
308.0,121.0,258.0
289.0,121.0,269.0
276.0,120.0,293.0
289.0,127.0,273.0
301.0,124.0,279.0
285.0,125.0,273.0
291.0,131.0,262.0
323.0,127.0,256.0
326.0,127.0,264.0
322.0,128.0,251.0
295.0,125.0,249.0
271.0,127.0,247.0
274.0,123.0,241.0
298.0,123.0,253.0
263.0,121.0,237.0
146.0,120.0,183.0
138.0,117.0,175.0
138.0,117.0,179.0
138.0,115.0,174.0
137.0,114.0,176.0
142.0,116.0,182.0
134.0,113.0,176.0
136.0,117.0,182.0
136.0,115.0,175.0
136.0,113.0,179.0
137.0,116.0,179.0
133.0,114.0,173.0
135.0,115.0,180.0
136.0,114.0,177.0
136.0,114.0,182.0
139.0,118.0,183.0
134.0,115.0,184.0
137.0,117.0,192.0
137.0,116.0,185.0
136.0,115.0,199.0
140.0,118.0,201.0
137.0,117.0,196.0
139.0,117.0,199.0
136.0,115.0,187.0
150.0,113.0,189.0
166.0,119.0,212.0
196.0,122.0,219.0
264.0,124.0,221.0
336.0,126.0,227.0
398.0,128.0,244.0
467.0,133.0,247.0
562.0,130.0,301.0
643.0,137.0,428.0
711.0,138.0,631.0
883.0,131.0,853.0
957.0,128.0,997.0
953.0,126.0,1023.0
908.0,131.0,1020.0
832.0,132.0,970.0
748.0,135.0,901.0
664.0,134.0,837.0
598.0,128.0,780.0
551.0,132.0,718.0
484.0,126.0,666.0
435.0,122.0,604.0
460.0,124.0,581.0
422.0,120.0,512.0
388.0,122.0,472.0
354.0,124.0,432.0
337.0,121.0,372.0
309.0,122.0,378.0
267.0,120.0,304.0
269.0,125.0,283.0
291.0,124.0,280.0
285.0,126.0,260.0
248.0,127.0,245.0
261.0,121.0,242.0
279.0,124.0,248.0
232.0,120.0,199.0
238.0,122.0,226.0
224.0,125.0,224.0
254.0,124.0,240.0
268.0,128.0,247.0
263.0,122.0,234.0
223.0,122.0,246.0
227.0,122.0,255.0
220.0,119.0,256.0
215.0,124.0,297.0
217.0,120.0,288.0
230.0,120.0,287.0
252.0,121.0,270.0
228.0,117.0,273.0
216.0,119.0,273.0
205.0,123.0,269.0
227.0,121.0,280.0
242.0,119.0,278.0
228.0,117.0,270.0
266.0,119.0,267.0
255.0,119.0,282.0
258.0,124.0,292.0
270.0,126.0,272.0
225.0,121.0,264.0
234.0,126.0,270.0
221.0,123.0,254.0
218.0,127.0,255.0
277.0,131.0,249.0
262.0,133.0,264.0
245.0,134.0,270.0
209.0,129.0,266.0
244.0,129.0,281.0
224.0,127.0,274.0
249.0,125.0,283.0
218.0,135.0,291.0
192.0,126.0,250.0
209.0,124.0,259.0
232.0,124.0,265.0
255.0,125.0,261.0
240.0,126.0,263.0
209.0,119.0,288.0
209.0,120.0,262.0
140.0,114.0,124.0
134.0,115.0,124.0
134.0,114.0,121.0
133.0,112.0,115.0
137.0,118.0,122.0
133.0,116.0,119.0
132.0,117.0,117.0
130.0,116.0,114.0
132.0,114.0,118.0
137.0,119.0,121.0
132.0,113.0,112.0
136.0,115.0,116.0
135.0,112.0,114.0
133.0,112.0,114.0
138.0,116.0,115.0
133.0,113.0,114.0
134.0,115.0,118.0
132.0,113.0,114.0
134.0,111.0,112.0
135.0,114.0,118.0
137.0,115.0,150.0
139.0,116.0,159.0
150.0,115.0,180.0
158.0,118.0,324.0
181.0,123.0,465.0
288.0,121.0,629.0
438.0,125.0,756.0
578.0,129.0,852.0
655.0,133.0,886.0
686.0,135.0,864.0
712.0,133.0,681.0
735.0,135.0,469.0
752.0,139.0,359.0
746.0,137.0,278.0
768.0,136.0,280.0
786.0,136.0,260.0
728.0,141.0,270.0
715.0,139.0,274.0
707.0,136.0,279.0
675.0,132.0,304.0
620.0,130.0,313.0
596.0,130.0,324.0
513.0,130.0,343.0
455.0,125.0,326.0
406.0,127.0,292.0
376.0,123.0,281.0
401.0,127.0,272.0
381.0,124.0,265.0
369.0,120.0,278.0
369.0,125.0,287.0
332.0,120.0,302.0
332.0,125.0,303.0
299.0,122.0,332.0
303.0,124.0,344.0
353.0,127.0,363.0
321.0,123.0,388.0
299.0,128.0,460.0
359.0,124.0,442.0
361.0,122.0,500.0
301.0,119.0,582.0
328.0,125.0,673.0
301.0,121.0,757.0
271.0,119.0,758.0
251.0,121.0,788.0
264.0,124.0,759.0
263.0,121.0,725.0
342.0,124.0,696.0
306.0,123.0,671.0
268.0,120.0,625.0
264.0,122.0,616.0
231.0,123.0,564.0
251.0,124.0,563.0
240.0,121.0,530.0
277.0,122.0,521.0
263.0,120.0,497.0
264.0,122.0,445.0
266.0,122.0,411.0
243.0,120.0,357.0
241.0,121.0,321.0
263.0,121.0,302.0
268.0,119.0,275.0
269.0,123.0,269.0
239.0,118.0,247.0
271.0,121.0,238.0
248.0,124.0,236.0
238.0,123.0,224.0
251.0,125.0,225.0
246.0,122.0,217.0
286.0,124.0,216.0
294.0,121.0,224.0
276.0,121.0,211.0
288.0,127.0,221.0
332.0,123.0,262.0
289.0,121.0,255.0
355.0,125.0,249.0
308.0,120.0,261.0
356.0,121.0,245.0
331.0,117.0,263.0
302.0,118.0,271.0
327.0,119.0,289.0
174.0,116.0,148.0
174.0,120.0,154.0
160.0,116.0,150.0
164.0,116.0,151.0
158.0,117.0,151.0
150.0,114.0,147.0
152.0,118.0,153.0
146.0,114.0,151.0
148.0,114.0,153.0
147.0,118.0,156.0
138.0,113.0,149.0
142.0,117.0,154.0
136.0,116.0,150.0
140.0,115.0,155.0
141.0,115.0,153.0
136.0,112.0,149.0
142.0,117.0,153.0
136.0,116.0,152.0
136.0,122.0,156.0
139.0,164.0,152.0
134.0,245.0,145.0
157.0,308.0,169.0
168.0,270.0,364.0
222.0,205.0,629.0
280.0,173.0,782.0
363.0,158.0,854.0
520.0,159.0,903.0
634.0,150.0,863.0
777.0,146.0,812.0
841.0,143.0,673.0
857.0,132.0,522.0
834.0,135.0,407.0
728.0,132.0,327.0
686.0,132.0,303.0
601.0,127.0,322.0
553.0,133.0,335.0
511.0,128.0,322.0
478.0,128.0,338.0
447.0,124.0,343.0
421.0,127.0,392.0
418.0,123.0,401.0
365.0,127.0,401.0
366.0,125.0,399.0
353.0,123.0,366.0
312.0,125.0,362.0
292.0,119.0,343.0
268.0,124.0,332.0
253.0,125.0,329.0
286.0,119.0,296.0
254.0,126.0,256.0
280.0,124.0,259.0
310.0,127.0,250.0
279.0,125.0,229.0
302.0,121.0,226.0
300.0,120.0,197.0
267.0,119.0,208.0
288.0,126.0,225.0
237.0,121.0,235.0
243.0,120.0,267.0
248.0,120.0,246.0
226.0,121.0,239.0
229.0,127.0,240.0
222.0,122.0,259.0
195.0,119.0,228.0
182.0,120.0,228.0
224.0,122.0,219.0
218.0,125.0,249.0
215.0,127.0,262.0
243.0,126.0,252.0
234.0,126.0,232.0
205.0,123.0,243.0
203.0,123.0,238.0
235.0,125.0,241.0
214.0,122.0,253.0
221.0,118.0,257.0
239.0,118.0,248.0
292.0,125.0,285.0
272.0,122.0,247.0
267.0,120.0,234.0
239.0,121.0,262.0
224.0,120.0,258.0
217.0,125.0,239.0
213.0,119.0,226.0
242.0,122.0,235.0
211.0,120.0,216.0
215.0,120.0,209.0
204.0,122.0,227.0
194.0,117.0,239.0
184.0,116.0,232.0
219.0,120.0,246.0
235.0,116.0,251.0
235.0,122.0,248.0
248.0,117.0,246.0
263.0,119.0,244.0
219.0,118.0,259.0
193.0,117.0,246.0
230.0,119.0,254.0
226.0,115.0,239.0
236.0,120.0,250.0
201.0,118.0,256.0
268.0,123.0,245.0
218.0,120.0,281.0
206.0,116.0,243.0
235.0,122.0,275.0
222.0,120.0,254.0
223.0,123.0,240.0
196.0,120.0,225.0
174.0,120.0,245.0
168.0,122.0,298.0
159.0,124.0,358.0
153.0,127.0,429.0
169.0,125.0,463.0
180.0,123.0,492.0
209.0,123.0,430.0
239.0,122.0,398.0
257.0,124.0,362.0
264.0,121.0,324.0
256.0,121.0,304.0
265.0,123.0,261.0
274.0,128.0,257.0
286.0,181.0,479.0
294.0,204.0,671.0
282.0,176.0,772.0
285.0,151.0,909.0
267.0,140.0,966.0
248.0,135.0,985.0
240.0,134.0,966.0
227.0,136.0,912.0
244.0,133.0,860.0
259.0,133.0,809.0
264.0,131.0,771.0
266.0,128.0,727.0
255.0,126.0,677.0
245.0,124.0,648.0
226.0,124.0,596.0
218.0,127.0,551.0
209.0,125.0,515.0
201.0,123.0,476.0
204.0,120.0,475.0
211.0,119.0,469.0
224.0,119.0,481.0
227.0,117.0,493.0
226.0,115.0,499.0
247.0,117.0,529.0
241.0,116.0,530.0
234.0,119.0,532.0
236.0,119.0,515.0
230.0,120.0,477.0
237.0,121.0,446.0
229.0,121.0,406.0
233.0,125.0,376.0
241.0,120.0,342.0
240.0,120.0,295.0
238.0,125.0,275.0
218.0,122.0,243.0
226.0,121.0,223.0
221.0,118.0,198.0
208.0,116.0,181.0
224.0,115.0,175.0
217.0,115.0,163.0
223.0,117.0,163.0
216.0,115.0,154.0
202.0,117.0,155.0
202.0,117.0,151.0
188.0,114.0,150.0
188.0,122.0,150.0
185.0,117.0,146.0
175.0,117.0,152.0
173.0,117.0,155.0
164.0,116.0,155.0
169.0,118.0,157.0
167.0,114.0,151.0
161.0,115.0,157.0
165.0,114.0,152.0
158.0,114.0,151.0
158.0,115.0,154.0
153.0,115.0,149.0
150.0,115.0,159.0
151.0,113.0,153.0
144.0,113.0,151.0
152.0,118.0,157.0
144.0,114.0,151.0
144.0,114.0,156.0
140.0,113.0,151.0
139.0,112.0,147.0
140.0,118.0,155.0
134.0,114.0,151.0
135.0,116.0,155.0
132.0,114.0,155.0
135.0,112.0,156.0
139.0,115.0,156.0
133.0,114.0,152.0
139.0,118.0,159.0
136.0,115.0,154.0
136.0,113.0,159.0
137.0,115.0,158.0
133.0,112.0,151.0
133.0,115.0,156.0
135.0,115.0,152.0
136.0,113.0,160.0
215.0,123.0,257.0
228.0,122.0,258.0
239.0,121.0,269.0
234.0,123.0,240.0
238.0,121.0,238.0
220.0,127.0,236.0
237.0,119.0,235.0
236.0,126.0,220.0
207.0,119.0,208.0
256.0,118.0,246.0
237.0,119.0,255.0
212.0,118.0,233.0
235.0,120.0,241.0
195.0,117.0,228.0
169.0,115.0,236.0
158.0,116.0,252.0
157.0,116.0,335.0
157.0,121.0,359.0
155.0,118.0,293.0
165.0,120.0,469.0
217.0,159.0,686.0
279.0,195.0,827.0
320.0,175.0,900.0
337.0,151.0,910.0
337.0,145.0,856.0
342.0,138.0,792.0
331.0,134.0,706.0
304.0,135.0,626.0
279.0,135.0,559.0
255.0,138.0,496.0
251.0,136.0,451.0
253.0,134.0,426.0
250.0,130.0,382.0
260.0,128.0,375.0
257.0,126.0,348.0
263.0,126.0,349.0
256.0,123.0,332.0
244.0,122.0,308.0
242.0,120.0,291.0
228.0,119.0,257.0
228.0,120.0,250.0
226.0,121.0,238.0
219.0,119.0,217.0
226.0,116.0,210.0
216.0,116.0,192.0
219.0,118.0,191.0
215.0,118.0,181.0
208.0,118.0,174.0
211.0,115.0,173.0
201.0,115.0,165.0
208.0,115.0,168.0
206.0,116.0,163.0
201.0,116.0,161.0
205.0,115.0,162.0
192.0,114.0,158.0
196.0,115.0,162.0
189.0,115.0,159.0
181.0,117.0,158.0
187.0,114.0,161.0
180.0,114.0,157.0
185.0,118.0,162.0
179.0,116.0,161.0
178.0,118.0,160.0
183.0,116.0,158.0
175.0,117.0,154.0
173.0,119.0,158.0
169.0,116.0,154.0
169.0,118.0,153.0
171.0,116.0,151.0
169.0,115.0,152.0
178.0,118.0,155.0
181.0,116.0,151.0
187.0,118.0,157.0
202.0,115.0,152.0
200.0,115.0,158.0
216.0,120.0,158.0
215.0,114.0,151.0
215.0,118.0,157.0
226.0,118.0,152.0
220.0,118.0,156.0
223.0,120.0,155.0
218.0,118.0,149.0
210.0,123.0,156.0
208.0,121.0,152.0
193.0,119.0,154.0
196.0,120.0,157.0
189.0,117.0,150.0
183.0,120.0,154.0
184.0,116.0,151.0
174.0,115.0,152.0
176.0,116.0,155.0
170.0,113.0,150.0
167.0,118.0,152.0
160.0,115.0,151.0
149.0,114.0,151.0
145.0,112.0,151.0
158.0,114.0,150.0
180.0,120.0,157.0
177.0,115.0,151.0
187.0,116.0,155.0
126.0,118.0,120.0
126.0,118.0,116.0
125.0,115.0,114.0
128.0,117.0,116.0
127.0,116.0,116.0
125.0,114.0,114.0
125.0,113.0,117.0
125.0,113.0,116.0
127.0,115.0,120.0
125.0,114.0,120.0
124.0,115.0,119.0
124.0,112.0,117.0
126.0,112.0,116.0
129.0,113.0,119.0
128.0,112.0,118.0
130.0,113.0,123.0
129.0,112.0,122.0
128.0,110.0,123.0
132.0,112.0,126.0
131.0,113.0,128.0
128.0,111.0,133.0
125.0,112.0,131.0
129.0,114.0,128.0
127.0,116.0,142.0
132.0,114.0,158.0
137.0,116.0,201.0
136.0,112.0,275.0
133.0,113.0,372.0
134.0,114.0,384.0
148.0,115.0,405.0
142.0,117.0,441.0
153.0,115.0,461.0
156.0,115.0,539.0
164.0,119.0,644.0
211.0,119.0,711.0
247.0,129.0,804.0
290.0,144.0,889.0
316.0,145.0,946.0
333.0,143.0,932.0
345.0,140.0,912.0
342.0,140.0,889.0
339.0,134.0,829.0
328.0,133.0,786.0
302.0,133.0,726.0
295.0,127.0,646.0
289.0,123.0,613.0
283.0,119.0,618.0
269.0,119.0,581.0
268.0,121.0,547.0
257.0,118.0,532.0
244.0,118.0,492.0
237.0,117.0,476.0
259.0,117.0,443.0
269.0,120.0,388.0
254.0,119.0,366.0
254.0,120.0,323.0
250.0,117.0,284.0
221.0,116.0,250.0
220.0,117.0,240.0
206.0,116.0,232.0
218.0,121.0,256.0
223.0,115.0,243.0
209.0,116.0,216.0
207.0,118.0,207.0
224.0,119.0,220.0
214.0,119.0,218.0
217.0,116.0,228.0
231.0,115.0,217.0
247.0,119.0,230.0
290.0,119.0,250.0
262.0,119.0,273.0
251.0,116.0,294.0
217.0,118.0,343.0
267.0,120.0,344.0
253.0,120.0,345.0
235.0,122.0,350.0
202.0,116.0,347.0
201.0,118.0,349.0
222.0,120.0,346.0
218.0,119.0,328.0
271.0,121.0,334.0
259.0,119.0,343.0
256.0,119.0,350.0
253.0,119.0,351.0
243.0,119.0,341.0
291.0,124.0,352.0
276.0,122.0,346.0
256.0,117.0,349.0
246.0,119.0,331.0
229.0,116.0,316.0
213.0,117.0,315.0
199.0,113.0,296.0
228.0,114.0,299.0
222.0,122.0,322.0
228.0,117.0,304.0
243.0,120.0,274.0
229.0,116.0,268.0
227.0,116.0,296.0
204.0,113.0,275.0
199.0,115.0,255.0
138.0,114.0,169.0
141.0,117.0,176.0
143.0,115.0,169.0
140.0,114.0,174.0
143.0,117.0,175.0
141.0,115.0,170.0
143.0,120.0,177.0
141.0,118.0,170.0
139.0,119.0,177.0
143.0,125.0,180.0
135.0,115.0,175.0
138.0,120.0,183.0
138.0,119.0,173.0
138.0,117.0,178.0
140.0,117.0,173.0
135.0,119.0,171.0
142.0,120.0,202.0
160.0,118.0,244.0
181.0,123.0,267.0
196.0,127.0,320.0
233.0,127.0,348.0
239.0,135.0,363.0
259.0,133.0,343.0
267.0,136.0,352.0
247.0,134.0,342.0
268.0,128.0,371.0
312.0,131.0,313.0
433.0,134.0,254.0
609.0,134.0,320.0
708.0,134.0,435.0
767.0,132.0,593.0
800.0,134.0,745.0
782.0,133.0,837.0
774.0,131.0,985.0
719.0,129.0,1023.0
637.0,134.0,1023.0
536.0,136.0,1023.0
414.0,133.0,1023.0
360.0,133.0,1023.0
327.0,133.0,1023.0
317.0,127.0,1023.0
269.0,128.0,1023.0
270.0,128.0,1023.0
270.0,129.0,1023.0
283.0,133.0,936.0
347.0,130.0,873.0
311.0,132.0,787.0
289.0,128.0,734.0
290.0,130.0,680.0
304.0,131.0,614.0
321.0,123.0,559.0
304.0,125.0,516.0
298.0,126.0,463.0
294.0,126.0,443.0
282.0,126.0,433.0
259.0,121.0,434.0
291.0,128.0,418.0
246.0,123.0,412.0
223.0,126.0,395.0
258.0,134.0,373.0
214.0,130.0,371.0
204.0,131.0,372.0
212.0,126.0,367.0
202.0,125.0,377.0
215.0,128.0,544.0
202.0,124.0,744.0
192.0,123.0,950.0
203.0,120.0,1023.0
207.0,122.0,1023.0
202.0,127.0,1023.0
203.0,123.0,1023.0
222.0,122.0,1023.0
210.0,123.0,1023.0
191.0,122.0,1023.0
182.0,123.0,1023.0
171.0,120.0,1023.0
186.0,124.0,1023.0
220.0,125.0,1023.0
195.0,121.0,1023.0
184.0,125.0,1023.0
170.0,124.0,1023.0
186.0,127.0,1023.0
205.0,122.0,1023.0
199.0,127.0,1023.0
198.0,125.0,1023.0
196.0,120.0,1023.0
212.0,125.0,1023.0
169.0,119.0,1023.0
189.0,122.0,1023.0
181.0,120.0,1023.0
207.0,120.0,1023.0
206.0,120.0,912.0
207.0,119.0,798.0
190.0,121.0,665.0
196.0,120.0,576.0
179.0,118.0,487.0
197.0,119.0,423.0
190.0,116.0,329.0
214.0,117.0,377.0
198.0,123.0,538.0
150.0,119.0,252.0
145.0,117.0,242.0
144.0,115.0,251.0
150.0,118.0,248.0
150.0,117.0,250.0
149.0,120.0,257.0
152.0,117.0,246.0
148.0,116.0,249.0
144.0,117.0,241.0
140.0,117.0,238.0
142.0,118.0,240.0
147.0,117.0,230.0
147.0,118.0,235.0
150.0,122.0,233.0
151.0,120.0,228.0
143.0,120.0,232.0
150.0,119.0,220.0
150.0,120.0,243.0
147.0,122.0,241.0
150.0,124.0,312.0
180.0,128.0,398.0
217.0,129.0,379.0
322.0,128.0,356.0
421.0,138.0,327.0
546.0,133.0,346.0
622.0,135.0,353.0
665.0,136.0,346.0
693.0,133.0,447.0
716.0,136.0,592.0
744.0,132.0,739.0
720.0,137.0,805.0
673.0,138.0,890.0
633.0,135.0,930.0
505.0,135.0,1023.0
408.0,139.0,1023.0
338.0,136.0,1023.0
291.0,131.0,1023.0
312.0,129.0,1023.0
269.0,130.0,1012.0
269.0,123.0,906.0
250.0,128.0,815.0
216.0,127.0,748.0
262.0,124.0,657.0
250.0,124.0,603.0
244.0,123.0,520.0
230.0,123.0,469.0
252.0,123.0,437.0
261.0,124.0,391.0
237.0,127.0,331.0
210.0,121.0,302.0
217.0,123.0,326.0
220.0,122.0,291.0
237.0,124.0,243.0
239.0,126.0,239.0
225.0,124.0,235.0
215.0,125.0,238.0
239.0,122.0,238.0
252.0,125.0,259.0
238.0,126.0,260.0
227.0,122.0,272.0
235.0,124.0,292.0
215.0,125.0,290.0
208.0,121.0,309.0
214.0,126.0,279.0
199.0,123.0,290.0
226.0,126.0,266.0
212.0,124.0,239.0
241.0,125.0,270.0
218.0,135.0,287.0
242.0,133.0,276.0
236.0,132.0,280.0
230.0,129.0,264.0
250.0,127.0,287.0
260.0,131.0,278.0
241.0,122.0,284.0
233.0,125.0,304.0
216.0,119.0,298.0
214.0,125.0,308.0
196.0,123.0,330.0
209.0,125.0,324.0
208.0,120.0,348.0
193.0,118.0,335.0
222.0,117.0,321.0
215.0,122.0,317.0
207.0,120.0,312.0
213.0,124.0,332.0
206.0,120.0,322.0
206.0,119.0,320.0
263.0,124.0,328.0
226.0,121.0,311.0
213.0,122.0,321.0
235.0,121.0,328.0
228.0,121.0,343.0
215.0,121.0,319.0
243.0,117.0,306.0
220.0,117.0,328.0
205.0,116.0,359.0
191.0,118.0,359.0
198.0,123.0,340.0
190.0,116.0,353.0
138.0,114.0,169.0
141.0,117.0,176.0
143.0,115.0,169.0
140.0,114.0,174.0
143.0,117.0,175.0
141.0,115.0,170.0
143.0,120.0,177.0
141.0,118.0,170.0
139.0,119.0,177.0
143.0,125.0,180.0
135.0,115.0,175.0
138.0,120.0,183.0
138.0,119.0,173.0
138.0,117.0,178.0
140.0,117.0,173.0
135.0,119.0,171.0
142.0,120.0,202.0
160.0,118.0,244.0
181.0,123.0,267.0
196.0,127.0,320.0
233.0,127.0,348.0
239.0,135.0,363.0
259.0,133.0,343.0
267.0,136.0,352.0
247.0,134.0,342.0
268.0,128.0,371.0
312.0,131.0,313.0
433.0,134.0,254.0
609.0,134.0,320.0
708.0,134.0,435.0
767.0,132.0,593.0
800.0,134.0,745.0
782.0,133.0,837.0
774.0,131.0,985.0
719.0,129.0,1023.0
637.0,134.0,1023.0
536.0,136.0,1023.0
414.0,133.0,1023.0
360.0,133.0,1023.0
327.0,133.0,1023.0
317.0,127.0,1023.0
269.0,128.0,1023.0
270.0,128.0,1023.0
270.0,129.0,1023.0
283.0,133.0,936.0
347.0,130.0,873.0
311.0,132.0,787.0
289.0,128.0,734.0
290.0,130.0,680.0
304.0,131.0,614.0
321.0,123.0,559.0
304.0,125.0,516.0
298.0,126.0,463.0
294.0,126.0,443.0
282.0,126.0,433.0
259.0,121.0,434.0
291.0,128.0,418.0
246.0,123.0,412.0
223.0,126.0,395.0
258.0,134.0,373.0
214.0,130.0,371.0
204.0,131.0,372.0
212.0,126.0,367.0
202.0,125.0,377.0
215.0,128.0,544.0
202.0,124.0,744.0
192.0,123.0,950.0
203.0,120.0,1023.0
207.0,122.0,1023.0
202.0,127.0,1023.0
203.0,123.0,1023.0
222.0,122.0,1023.0
210.0,123.0,1023.0
191.0,122.0,1023.0
182.0,123.0,1023.0
171.0,120.0,1023.0
186.0,124.0,1023.0
220.0,125.0,1023.0
195.0,121.0,1023.0
184.0,125.0,1023.0
170.0,124.0,1023.0
186.0,127.0,1023.0
205.0,122.0,1023.0
199.0,127.0,1023.0
198.0,125.0,1023.0
196.0,120.0,1023.0
212.0,125.0,1023.0
169.0,119.0,1023.0
189.0,122.0,1023.0
181.0,120.0,1023.0
207.0,120.0,1023.0
206.0,120.0,912.0
207.0,119.0,798.0
190.0,121.0,665.0
196.0,120.0,576.0
179.0,118.0,487.0
197.0,119.0,423.0
190.0,116.0,329.0
214.0,117.0,377.0
198.0,123.0,538.0
124.0,113.0,111.0
134.0,121.0,124.0
126.0,113.0,118.0
127.0,113.0,121.0
126.0,115.0,126.0
122.0,112.0,118.0
126.0,114.0,123.0
126.0,114.0,122.0
127.0,114.0,121.0
127.0,116.0,122.0
124.0,112.0,116.0
131.0,120.0,124.0
125.0,114.0,117.0
125.0,113.0,115.0
129.0,115.0,122.0
126.0,110.0,129.0
131.0,114.0,151.0
126.0,112.0,172.0
128.0,111.0,181.0
132.0,113.0,188.0
136.0,112.0,214.0
197.0,115.0,386.0
184.0,113.0,761.0
156.0,122.0,1023.0
159.0,130.0,1023.0
172.0,129.0,1023.0
160.0,131.0,1023.0
188.0,125.0,1023.0
168.0,123.0,1023.0
175.0,132.0,1023.0
176.0,133.0,1023.0
197.0,134.0,1023.0
226.0,133.0,1023.0
211.0,132.0,1023.0
196.0,130.0,1023.0
214.0,129.0,891.0
255.0,131.0,691.0
221.0,129.0,529.0
255.0,128.0,392.0
280.0,124.0,320.0
229.0,122.0,250.0
209.0,119.0,217.0
217.0,116.0,198.0
241.0,116.0,222.0
264.0,118.0,295.0
270.0,117.0,361.0
278.0,121.0,426.0
261.0,120.0,464.0
239.0,117.0,502.0
241.0,120.0,521.0
220.0,118.0,517.0
228.0,121.0,537.0
211.0,118.0,517.0
201.0,119.0,511.0
193.0,116.0,511.0
187.0,113.0,508.0
190.0,116.0,505.0
190.0,116.0,505.0
200.0,117.0,484.0
219.0,118.0,468.0
198.0,115.0,453.0
215.0,119.0,427.0
204.0,116.0,419.0
205.0,119.0,385.0
211.0,117.0,358.0
221.0,116.0,347.0
209.0,121.0,333.0
214.0,116.0,321.0
238.0,119.0,319.0
251.0,122.0,321.0
242.0,120.0,310.0
249.0,120.0,313.0
229.0,115.0,278.0
246.0,117.0,292.0
229.0,114.0,265.0
220.0,113.0,247.0
193.0,115.0,243.0
196.0,113.0,238.0
178.0,114.0,247.0
179.0,114.0,247.0
194.0,114.0,246.0
184.0,123.0,261.0
210.0,118.0,239.0
198.0,117.0,243.0
196.0,118.0,229.0
225.0,118.0,219.0
228.0,117.0,237.0
241.0,119.0,216.0
219.0,116.0,224.0
224.0,116.0,203.0
227.0,118.0,210.0
198.0,117.0,223.0
212.0,118.0,216.0
212.0,119.0,218.0
202.0,117.0,217.0
199.0,115.0,202.0
208.0,118.0,193.0
225.0,119.0,203.0
208.0,116.0,207.0
232.0,116.0,193.0
136.0,177.0,114.0
134.0,169.0,110.0
134.0,164.0,113.0
135.0,165.0,115.0
133.0,161.0,115.0
132.0,161.0,116.0
133.0,154.0,116.0
133.0,148.0,118.0
130.0,139.0,114.0
135.0,135.0,116.0
135.0,126.0,115.0
133.0,121.0,116.0
133.0,117.0,114.0
130.0,111.0,112.0
135.0,112.0,118.0
135.0,111.0,128.0
134.0,112.0,134.0
134.0,113.0,141.0
126.0,110.0,156.0
131.0,113.0,204.0
148.0,111.0,389.0
163.0,113.0,679.0
160.0,121.0,1017.0
133.0,120.0,1023.0
146.0,124.0,1023.0
160.0,122.0,1023.0
183.0,119.0,1023.0
202.0,125.0,1023.0
205.0,125.0,1023.0
214.0,128.0,1023.0
237.0,124.0,1023.0
229.0,123.0,1023.0
239.0,125.0,1023.0
253.0,119.0,959.0
254.0,122.0,848.0
227.0,118.0,756.0
224.0,119.0,673.0
227.0,124.0,573.0
209.0,122.0,505.0
219.0,122.0,428.0
239.0,125.0,370.0
253.0,127.0,313.0
233.0,122.0,269.0
254.0,123.0,232.0
236.0,125.0,211.0
235.0,118.0,209.0
233.0,115.0,219.0
219.0,115.0,249.0
232.0,113.0,256.0
224.0,117.0,270.0
233.0,119.0,257.0
267.0,116.0,259.0
260.0,114.0,263.0
271.0,118.0,267.0
294.0,119.0,308.0
281.0,119.0,347.0
311.0,116.0,421.0
290.0,117.0,478.0
274.0,116.0,469.0
261.0,117.0,417.0
249.0,116.0,363.0
273.0,116.0,323.0
258.0,115.0,281.0
283.0,115.0,275.0
314.0,118.0,293.0
308.0,118.0,277.0
296.0,114.0,270.0
296.0,115.0,264.0
282.0,118.0,260.0
274.0,118.0,253.0
252.0,121.0,263.0
243.0,122.0,253.0
256.0,116.0,233.0
284.0,116.0,230.0
264.0,116.0,252.0
238.0,118.0,247.0
217.0,115.0,236.0
242.0,116.0,245.0
248.0,118.0,254.0
251.0,117.0,234.0
243.0,115.0,249.0
244.0,114.0,227.0
265.0,117.0,219.0
290.0,121.0,231.0
246.0,123.0,213.0
229.0,124.0,214.0
235.0,122.0,208.0
222.0,116.0,205.0
209.0,119.0,220.0
206.0,117.0,216.0
214.0,112.0,218.0
262.0,116.0,206.0
258.0,116.0,208.0
219.0,115.0,219.0
212.0,115.0,194.0
262.0,115.0,204.0
251.0,114.0,232.0
210.0,112.0,215.0
199.0,114.0,196.0
203.0,112.0,204.0
141.0,121.0,195.0
142.0,119.0,204.0
145.0,121.0,200.0
145.0,117.0,199.0
151.0,125.0,202.0
153.0,122.0,195.0
150.0,120.0,201.0
153.0,124.0,193.0
146.0,119.0,190.0
150.0,125.0,198.0
142.0,122.0,185.0
142.0,121.0,188.0
144.0,122.0,184.0
140.0,117.0,183.0
145.0,124.0,193.0
140.0,122.0,182.0
141.0,121.0,188.0
144.0,124.0,191.0
137.0,117.0,182.0
144.0,123.0,188.0
137.0,117.0,180.0
139.0,117.0,190.0
139.0,119.0,187.0
133.0,116.0,191.0
141.0,119.0,193.0
140.0,117.0,192.0
140.0,117.0,205.0
143.0,121.0,216.0
137.0,122.0,215.0
155.0,126.0,239.0
160.0,123.0,256.0
208.0,124.0,280.0
326.0,128.0,331.0
451.0,129.0,368.0
584.0,141.0,437.0
655.0,140.0,584.0
753.0,137.0,710.0
748.0,138.0,811.0
796.0,136.0,840.0
763.0,136.0,867.0
697.0,135.0,808.0
662.0,128.0,721.0
632.0,125.0,663.0
545.0,124.0,565.0
504.0,125.0,523.0
440.0,122.0,484.0
405.0,122.0,442.0
356.0,121.0,404.0
329.0,121.0,374.0
321.0,121.0,371.0
283.0,123.0,368.0
276.0,121.0,337.0
259.0,123.0,371.0
267.0,120.0,353.0
249.0,121.0,367.0
242.0,120.0,343.0
231.0,120.0,302.0
237.0,124.0,301.0
238.0,121.0,289.0
219.0,123.0,303.0
214.0,120.0,301.0
193.0,117.0,300.0
195.0,116.0,287.0
213.0,114.0,274.0
219.0,126.0,271.0
224.0,127.0,283.0
209.0,126.0,289.0
216.0,123.0,311.0
214.0,121.0,302.0
205.0,123.0,314.0
233.0,125.0,342.0
233.0,121.0,355.0
209.0,123.0,419.0
185.0,118.0,423.0
205.0,120.0,413.0
191.0,122.0,397.0
208.0,122.0,358.0
210.0,121.0,349.0
204.0,120.0,288.0
250.0,125.0,296.0
245.0,121.0,306.0
261.0,118.0,274.0
239.0,118.0,269.0
223.0,120.0,269.0
227.0,123.0,269.0
206.0,122.0,255.0
202.0,124.0,243.0
223.0,123.0,219.0
203.0,121.0,237.0
212.0,127.0,244.0
234.0,125.0,247.0
203.0,126.0,221.0
198.0,124.0,215.0
212.0,126.0,229.0
188.0,121.0,292.0
187.0,118.0,322.0
179.0,119.0,341.0
184.0,117.0,367.0
175.0,116.0,400.0
189.0,119.0,428.0
117.0,123.0,121.0
121.0,126.0,124.0
120.0,123.0,124.0
118.0,124.0,128.0
115.0,123.0,128.0
114.0,122.0,125.0
116.0,124.0,127.0
116.0,123.0,128.0
117.0,130.0,131.0
114.0,200.0,135.0
119.0,250.0,159.0
189.0,312.0,273.0
306.0,363.0,585.0
463.0,494.0,1023.0
684.0,738.0,1023.0
1023.0,1023.0,1023.0
1023.0,1023.0,1023.0
1023.0,1023.0,816.0
1023.0,1023.0,551.0
1023.0,1023.0,455.0
1023.0,1023.0,393.0
1023.0,1023.0,358.0
1023.0,1023.0,322.0
1023.0,1023.0,347.0
1023.0,1023.0,301.0
1023.0,1023.0,286.0
1023.0,1023.0,254.0
1023.0,1023.0,278.0
1023.0,1023.0,258.0
1023.0,1023.0,323.0
1023.0,1023.0,388.0
1023.0,1023.0,500.0
1023.0,1023.0,599.0
1023.0,1023.0,708.0
1023.0,1023.0,799.0
1023.0,1023.0,888.0
1023.0,1023.0,909.0
1023.0,1023.0,946.0
956.0,1023.0,941.0
834.0,938.0,945.0
709.0,889.0,883.0
587.0,828.0,873.0
474.0,772.0,821.0
377.0,695.0,798.0
300.0,620.0,742.0
238.0,577.0,718.0
198.0,499.0,677.0
171.0,429.0,627.0
150.0,351.0,590.0
140.0,335.0,545.0
138.0,313.0,487.0
143.0,341.0,457.0
147.0,358.0,426.0
148.0,317.0,399.0
159.0,308.0,381.0
188.0,321.0,346.0
199.0,331.0,363.0
211.0,317.0,371.0
205.0,327.0,375.0
220.0,321.0,371.0
242.0,352.0,383.0
261.0,365.0,382.0
275.0,358.0,361.0
279.0,396.0,336.0
270.0,377.0,290.0
250.0,388.0,282.0
250.0,377.0,264.0
257.0,414.0,251.0
255.0,400.0,270.0
257.0,414.0,267.0
259.0,406.0,255.0
258.0,438.0,237.0
265.0,429.0,250.0
264.0,434.0,248.0
263.0,421.0,260.0
267.0,398.0,251.0
268.0,427.0,225.0
283.0,414.0,214.0
289.0,425.0,265.0
294.0,416.0,241.0
290.0,414.0,313.0
289.0,443.0,282.0
299.0,426.0,315.0
292.0,421.0,334.0
309.0,451.0,351.0
313.0,441.0,338.0
336.0,495.0,352.0
438.0,610.0,486.0
530.0,741.0,596.0
583.0,756.0,612.0
607.0,820.0,595.0
655.0,892.0,598.0
668.0,909.0,568.0
655.0,875.0,510.0
663.0,943.0,478.0
648.0,871.0,427.0
631.0,915.0,398.0
661.0,905.0,384.0
630.0,867.0,329.0
632.0,930.0,372.0
114.0,138.0,159.0
117.0,136.0,160.0
114.0,134.0,158.0
113.0,133.0,157.0
113.0,130.0,154.0
114.0,137.0,152.0
114.0,134.0,148.0
112.0,131.0,142.0
111.0,133.0,140.0
111.0,131.0,138.0
114.0,141.0,141.0
115.0,272.0,160.0
138.0,293.0,292.0
177.0,455.0,511.0
227.0,715.0,844.0
395.0,990.0,961.0
613.0,1023.0,921.0
785.0,1023.0,774.0
879.0,1023.0,640.0
900.0,1023.0,567.0
914.0,1023.0,483.0
870.0,1023.0,504.0
834.0,938.0,529.0
779.0,890.0,510.0
727.0,839.0,439.0
670.0,809.0,440.0
609.0,756.0,456.0
549.0,731.0,495.0
501.0,652.0,503.0
449.0,630.0,446.0
402.0,591.0,405.0
367.0,536.0,441.0
342.0,514.0,490.0
321.0,494.0,479.0
296.0,480.0,423.0
290.0,444.0,425.0
290.0,425.0,439.0
273.0,433.0,424.0
253.0,430.0,422.0
250.0,391.0,477.0
244.0,352.0,494.0
246.0,340.0,437.0
243.0,329.0,468.0
230.0,309.0,496.0
222.0,362.0,486.0
268.0,378.0,473.0
241.0,351.0,500.0
221.0,316.0,434.0
218.0,262.0,433.0
203.0,273.0,423.0
234.0,268.0,581.0
204.0,298.0,530.0
195.0,356.0,539.0
185.0,310.0,482.0
171.0,272.0,466.0
163.0,305.0,412.0
168.0,328.0,451.0
154.0,298.0,508.0
160.0,290.0,557.0
162.0,310.0,505.0
157.0,301.0,519.0
175.0,314.0,481.0
169.0,297.0,417.0
171.0,306.0,429.0
187.0,317.0,482.0
182.0,317.0,443.0
185.0,309.0,477.0
168.0,320.0,456.0
164.0,306.0,473.0
167.0,305.0,433.0
164.0,283.0,431.0
156.0,268.0,365.0
169.0,285.0,376.0
164.0,309.0,411.0
158.0,295.0,418.0
155.0,274.0,425.0
165.0,317.0,412.0
164.0,314.0,380.0
173.0,325.0,388.0
194.0,362.0,427.0
194.0,327.0,404.0
196.0,339.0,405.0
189.0,302.0,419.0
192.0,287.0,404.0
188.0,254.0,397.0
192.0,279.0,350.0
180.0,231.0,345.0
171.0,269.0,320.0
178.0,303.0,321.0
185.0,300.0,327.0
198.0,304.0,320.0
190.0,286.0,313.0
178.0,273.0,286.0
189.0,280.0,332.0
194.0,375.0,348.0
181.0,414.0,387.0
202.0,389.0,326.0
190.0,355.0,316.0
186.0,367.0,309.0
193.0,375.0,292.0
112.0,139.0,164.0
111.0,136.0,163.0
115.0,140.0,159.0
114.0,140.0,158.0
112.0,137.0,150.0
113.0,133.0,157.0
115.0,249.0,211.0
129.0,334.0,257.0
166.0,389.0,407.0
259.0,626.0,733.0
401.0,814.0,899.0
609.0,1016.0,830.0
765.0,1023.0,646.0
840.0,1023.0,504.0
863.0,1023.0,469.0
856.0,1001.0,492.0
806.0,931.0,452.0
737.0,869.0,445.0
676.0,823.0,473.0
622.0,791.0,399.0
564.0,721.0,465.0
503.0,688.0,411.0
458.0,661.0,414.0
418.0,652.0,403.0
399.0,572.0,432.0
365.0,538.0,366.0
339.0,455.0,348.0
303.0,451.0,386.0
282.0,378.0,414.0
254.0,362.0,426.0
239.0,363.0,464.0
231.0,355.0,461.0
229.0,363.0,424.0
228.0,354.0,406.0
233.0,321.0,381.0
231.0,330.0,404.0
219.0,290.0,401.0
203.0,305.0,455.0
194.0,324.0,437.0
182.0,301.0,416.0
178.0,259.0,443.0
168.0,273.0,471.0
178.0,271.0,452.0
173.0,286.0,393.0
173.0,327.0,408.0
159.0,290.0,411.0
165.0,315.0,489.0
157.0,291.0,405.0
154.0,377.0,446.0
145.0,282.0,520.0
151.0,299.0,545.0
152.0,338.0,542.0
168.0,337.0,648.0
183.0,370.0,739.0
174.0,355.0,727.0
168.0,372.0,679.0
194.0,377.0,496.0
208.0,407.0,496.0
210.0,392.0,430.0
201.0,389.0,382.0
188.0,378.0,332.0
180.0,342.0,317.0
184.0,347.0,299.0
188.0,304.0,309.0
174.0,288.0,303.0
189.0,291.0,356.0
188.0,256.0,350.0
206.0,236.0,348.0
209.0,256.0,331.0
197.0,234.0,351.0
191.0,216.0,328.0
192.0,242.0,314.0
193.0,285.0,361.0
197.0,287.0,331.0
186.0,273.0,333.0
197.0,257.0,311.0
196.0,285.0,309.0
214.0,297.0,304.0
216.0,325.0,345.0
219.0,305.0,323.0
215.0,284.0,301.0
205.0,302.0,317.0
211.0,286.0,307.0
212.0,304.0,300.0
206.0,282.0,311.0
224.0,316.0,293.0
225.0,271.0,285.0
228.0,277.0,280.0
212.0,269.0,305.0
199.0,286.0,281.0
200.0,270.0,327.0
204.0,281.0,308.0
195.0,245.0,289.0
211.0,252.0,304.0
209.0,246.0,314.0
202.0,261.0,384.0
209.0,294.0,366.0
203.0,270.0,371.0
195.0,232.0,371.0
205.0,286.0,449.0
114.0,135.0,147.0
111.0,136.0,148.0
112.0,141.0,151.0
110.0,137.0,147.0
114.0,137.0,149.0
119.0,132.0,151.0
116.0,130.0,155.0
115.0,137.0,163.0
122.0,256.0,221.0
144.0,343.0,300.0
177.0,437.0,361.0
283.0,652.0,535.0
441.0,904.0,667.0
596.0,1023.0,749.0
678.0,1023.0,612.0
700.0,1023.0,573.0
747.0,1023.0,515.0
723.0,1023.0,464.0
684.0,1015.0,460.0
645.0,942.0,404.0
607.0,842.0,388.0
557.0,797.0,391.0
490.0,725.0,382.0
454.0,688.0,434.0
405.0,683.0,424.0
363.0,611.0,409.0
335.0,576.0,385.0
315.0,576.0,415.0
293.0,510.0,392.0
277.0,457.0,383.0
240.0,425.0,356.0
239.0,430.0,361.0
226.0,352.0,347.0
212.0,381.0,314.0
208.0,394.0,364.0
209.0,426.0,343.0
209.0,398.0,352.0
217.0,407.0,373.0
223.0,395.0,357.0
218.0,372.0,396.0
215.0,385.0,393.0
194.0,356.0,381.0
179.0,352.0,403.0
170.0,424.0,382.0
163.0,367.0,376.0
158.0,358.0,336.0
169.0,354.0,327.0
152.0,370.0,283.0
156.0,365.0,284.0
157.0,366.0,287.0
151.0,433.0,286.0
144.0,363.0,307.0
146.0,357.0,332.0
145.0,394.0,271.0
166.0,356.0,256.0
175.0,340.0,304.0
178.0,347.0,346.0
173.0,375.0,367.0
158.0,344.0,380.0
151.0,313.0,339.0
141.0,330.0,344.0
145.0,338.0,349.0
135.0,332.0,406.0
139.0,347.0,358.0
135.0,301.0,367.0
158.0,389.0,351.0
158.0,345.0,353.0
151.0,341.0,342.0
160.0,302.0,324.0
152.0,315.0,315.0
170.0,312.0,304.0
179.0,305.0,297.0
177.0,352.0,268.0
182.0,332.0,278.0
179.0,337.0,339.0
176.0,336.0,341.0
170.0,308.0,298.0
179.0,388.0,296.0
168.0,355.0,274.0
161.0,363.0,293.0
161.0,419.0,260.0
161.0,403.0,276.0
151.0,319.0,300.0
152.0,307.0,285.0
149.0,294.0,278.0
159.0,326.0,317.0
164.0,404.0,297.0
151.0,385.0,286.0
145.0,336.0,321.0
151.0,360.0,321.0
149.0,358.0,295.0
158.0,375.0,275.0
158.0,336.0,271.0
152.0,305.0,294.0
147.0,304.0,335.0
148.0,325.0,322.0
147.0,351.0,318.0
141.0,329.0,310.0
135.0,258.0,328.0
154.0,314.0,308.0
118.0,132.0,129.0
116.0,133.0,131.0
116.0,130.0,129.0
115.0,133.0,133.0
117.0,132.0,129.0
115.0,136.0,136.0
117.0,302.0,171.0
133.0,321.0,255.0
164.0,455.0,363.0
239.0,601.0,778.0
417.0,836.0,950.0
589.0,977.0,933.0
765.0,1023.0,723.0
843.0,1023.0,583.0
852.0,1010.0,489.0
851.0,955.0,433.0
800.0,913.0,441.0
750.0,862.0,404.0
703.0,782.0,418.0
635.0,769.0,454.0
587.0,704.0,416.0
531.0,651.0,390.0
495.0,621.0,386.0
458.0,530.0,413.0
416.0,565.0,363.0
398.0,516.0,398.0
369.0,463.0,366.0
351.0,478.0,377.0
326.0,499.0,394.0
306.0,482.0,414.0
316.0,460.0,488.0
305.0,379.0,506.0
289.0,376.0,434.0
276.0,359.0,435.0
270.0,353.0,457.0
248.0,342.0,448.0
214.0,354.0,494.0
220.0,368.0,507.0
208.0,369.0,460.0
204.0,364.0,466.0
213.0,353.0,479.0
185.0,387.0,483.0
185.0,337.0,448.0
199.0,316.0,500.0
200.0,329.0,421.0
187.0,282.0,430.0
185.0,275.0,422.0
211.0,280.0,432.0
178.0,307.0,371.0
180.0,296.0,339.0
177.0,321.0,393.0
171.0,314.0,405.0
194.0,364.0,388.0
193.0,313.0,356.0
185.0,341.0,376.0
185.0,300.0,322.0
207.0,284.0,333.0
193.0,282.0,317.0
189.0,255.0,329.0
199.0,274.0,372.0
195.0,238.0,315.0
197.0,274.0,417.0
179.0,327.0,352.0
185.0,306.0,369.0
174.0,294.0,506.0
171.0,321.0,472.0
196.0,365.0,546.0
188.0,333.0,491.0
187.0,365.0,479.0
195.0,347.0,431.0
186.0,288.0,443.0
189.0,266.0,374.0
167.0,243.0,341.0
169.0,221.0,401.0
187.0,276.0,342.0
171.0,279.0,351.0
170.0,301.0,386.0
174.0,298.0,416.0
191.0,303.0,442.0
178.0,307.0,473.0
182.0,329.0,475.0
188.0,346.0,461.0
187.0,321.0,468.0
170.0,347.0,433.0
168.0,366.0,408.0
158.0,306.0,389.0
158.0,289.0,407.0
156.0,289.0,350.0
159.0,252.0,414.0
164.0,274.0,382.0
166.0,263.0,372.0
167.0,343.0,321.0
185.0,353.0,340.0
175.0,312.0,354.0
176.0,275.0,330.0
175.0,318.0,362.0
178.0,330.0,386.0
176.0,342.0,362.0
173.0,287.0,345.0
167.0,286.0,301.0
135.0,137.0,141.0
133.0,136.0,142.0
130.0,132.0,141.0
132.0,132.0,141.0
129.0,132.0,142.0
132.0,133.0,142.0
127.0,183.0,152.0
133.0,288.0,181.0
155.0,340.0,302.0
212.0,444.0,632.0
348.0,641.0,1023.0
571.0,887.0,1023.0
876.0,1023.0,1023.0
1023.0,1023.0,902.0
1023.0,1023.0,762.0
1023.0,1023.0,719.0
1023.0,1023.0,655.0
1023.0,1017.0,628.0
1023.0,937.0,610.0
1023.0,896.0,569.0
1023.0,829.0,496.0
1023.0,761.0,435.0
1023.0,759.0,421.0
1023.0,721.0,381.0
1023.0,689.0,381.0
1023.0,634.0,357.0
943.0,603.0,341.0
831.0,564.0,362.0
675.0,546.0,420.0
577.0,469.0,446.0
485.0,382.0,471.0
394.0,378.0,530.0
340.0,372.0,574.0
285.0,359.0,609.0
248.0,347.0,608.0
211.0,324.0,644.0
202.0,312.0,618.0
178.0,293.0,672.0
169.0,302.0,666.0
163.0,278.0,667.0
159.0,271.0,648.0
154.0,272.0,634.0
166.0,268.0,634.0
165.0,291.0,606.0
155.0,278.0,601.0
167.0,273.0,570.0
179.0,293.0,570.0
177.0,279.0,529.0
188.0,274.0,508.0
189.0,263.0,526.0
200.0,264.0,502.0
207.0,297.0,453.0
198.0,300.0,423.0
192.0,270.0,392.0
196.0,251.0,377.0
197.0,254.0,359.0
205.0,242.0,347.0
220.0,266.0,367.0
221.0,272.0,318.0
225.0,261.0,301.0
238.0,257.0,286.0
240.0,276.0,294.0
237.0,265.0,287.0
250.0,289.0,274.0
243.0,276.0,255.0
242.0,293.0,243.0
255.0,283.0,235.0
240.0,288.0,254.0
238.0,296.0,266.0
250.0,325.0,274.0
242.0,328.0,259.0
236.0,311.0,300.0
233.0,288.0,285.0
232.0,269.0,283.0
230.0,255.0,283.0
239.0,243.0,263.0
247.0,274.0,319.0
259.0,265.0,291.0
269.0,273.0,285.0
286.0,316.0,272.0
294.0,300.0,262.0
291.0,282.0,281.0
274.0,260.0,277.0
276.0,287.0,242.0
273.0,287.0,249.0
274.0,269.0,241.0
287.0,290.0,279.0
281.0,297.0,273.0
289.0,287.0,275.0
289.0,290.0,261.0
286.0,282.0,239.0
288.0,292.0,232.0
277.0,340.0,237.0
279.0,336.0,240.0
255.0,333.0,243.0
242.0,305.0,245.0
227.0,277.0,246.0
209.0,302.0,244.0
212.0,266.0,269.0
208.0,256.0,272.0
114.0,125.0,127.0
115.0,126.0,128.0
114.0,128.0,126.0
112.0,128.0,127.0
114.0,126.0,124.0
114.0,150.0,134.0
113.0,142.0,133.0
121.0,196.0,162.0
132.0,294.0,180.0
171.0,399.0,296.0
234.0,495.0,451.0
358.0,696.0,769.0
523.0,896.0,906.0
648.0,1023.0,832.0
741.0,1023.0,732.0
752.0,1023.0,523.0
730.0,1023.0,471.0
700.0,1023.0,461.0
657.0,951.0,490.0
602.0,865.0,463.0
550.0,810.0,537.0
507.0,747.0,509.0
477.0,720.0,498.0
453.0,610.0,511.0
430.0,589.0,586.0
389.0,544.0,591.0
350.0,496.0,609.0
335.0,460.0,595.0
301.0,476.0,617.0
291.0,423.0,593.0
280.0,402.0,593.0
255.0,479.0,666.0
260.0,446.0,637.0
223.0,400.0,619.0
217.0,389.0,600.0
203.0,364.0,623.0
202.0,342.0,682.0
201.0,371.0,696.0
210.0,322.0,784.0
212.0,324.0,737.0
197.0,294.0,747.0
189.0,307.0,686.0
178.0,315.0,662.0
184.0,306.0,652.0
171.0,308.0,637.0
160.0,315.0,633.0
169.0,371.0,585.0
160.0,357.0,626.0
160.0,385.0,569.0
159.0,377.0,572.0
150.0,346.0,569.0
175.0,338.0,554.0
179.0,349.0,521.0
171.0,341.0,559.0
192.0,349.0,585.0
188.0,357.0,582.0
172.0,305.0,542.0
171.0,295.0,509.0
184.0,331.0,517.0
174.0,300.0,491.0
165.0,293.0,481.0
171.0,311.0,464.0
178.0,290.0,502.0
164.0,296.0,543.0
161.0,270.0,553.0
163.0,281.0,584.0
158.0,287.0,529.0
163.0,283.0,493.0
163.0,255.0,444.0
161.0,279.0,472.0
168.0,325.0,473.0
181.0,286.0,454.0
187.0,281.0,420.0
183.0,272.0,376.0
183.0,270.0,381.0
191.0,288.0,402.0
178.0,264.0,413.0
176.0,262.0,373.0
174.0,263.0,331.0
176.0,325.0,355.0
177.0,303.0,369.0
170.0,320.0,331.0
182.0,322.0,368.0
185.0,270.0,319.0
176.0,266.0,307.0
197.0,313.0,374.0
193.0,296.0,340.0
203.0,348.0,343.0
208.0,310.0,326.0
202.0,310.0,375.0
211.0,337.0,326.0
205.0,282.0,335.0
209.0,292.0,361.0
215.0,269.0,329.0
205.0,281.0,387.0
202.0,268.0,349.0
209.0,256.0,312.0
205.0,271.0,324.0
196.0,235.0,284.0
197.0,265.0,363.0
113.0,127.0,134.0
113.0,127.0,131.0
112.0,125.0,126.0
118.0,131.0,131.0
116.0,127.0,130.0
115.0,128.0,133.0
117.0,131.0,139.0
114.0,128.0,138.0
116.0,131.0,137.0
117.0,133.0,141.0
113.0,181.0,189.0
124.0,291.0,247.0
123.0,379.0,318.0
194.0,465.0,555.0
308.0,618.0,791.0
456.0,833.0,802.0
582.0,936.0,661.0
665.0,966.0,525.0
701.0,958.0,502.0
687.0,956.0,427.0
675.0,864.0,439.0
637.0,811.0,415.0
590.0,706.0,413.0
546.0,692.0,426.0
500.0,591.0,424.0
463.0,499.0,471.0
430.0,456.0,499.0
404.0,434.0,484.0
376.0,464.0,476.0
347.0,460.0,466.0
307.0,394.0,439.0
280.0,388.0,494.0
262.0,410.0,466.0
233.0,400.0,474.0
212.0,443.0,542.0
203.0,399.0,493.0
186.0,375.0,477.0
169.0,396.0,511.0
168.0,354.0,505.0
158.0,315.0,453.0
157.0,291.0,448.0
173.0,350.0,444.0
166.0,373.0,460.0
158.0,381.0,546.0
158.0,369.0,476.0
157.0,355.0,441.0
164.0,389.0,470.0
166.0,377.0,431.0
164.0,482.0,397.0
173.0,527.0,428.0
171.0,534.0,442.0
166.0,484.0,409.0
159.0,457.0,404.0
160.0,435.0,415.0
143.0,413.0,455.0
141.0,386.0,417.0
148.0,359.0,449.0
145.0,391.0,460.0
150.0,413.0,438.0
155.0,415.0,415.0
142.0,391.0,387.0
144.0,374.0,392.0
146.0,338.0,380.0
147.0,361.0,479.0
168.0,363.0,517.0
182.0,355.0,536.0
183.0,358.0,527.0
183.0,417.0,532.0
192.0,432.0,553.0
205.0,460.0,539.0
224.0,489.0,572.0
190.0,498.0,491.0
177.0,476.0,480.0
195.0,458.0,557.0
186.0,479.0,511.0
181.0,479.0,479.0
174.0,478.0,492.0
174.0,476.0,517.0
181.0,503.0,525.0
179.0,469.0,520.0
166.0,415.0,501.0
161.0,388.0,438.0
164.0,435.0,442.0
178.0,386.0,510.0
162.0,340.0,462.0
166.0,322.0,490.0
172.0,326.0,531.0
157.0,284.0,537.0
155.0,294.0,493.0
150.0,290.0,462.0
146.0,267.0,424.0
162.0,297.0,383.0
167.0,280.0,405.0
166.0,290.0,394.0
174.0,273.0,414.0
160.0,291.0,400.0
152.0,280.0,423.0
150.0,259.0,480.0
142.0,231.0,426.0
144.0,221.0,495.0
114.0,123.0,136.0
115.0,124.0,140.0
117.0,124.0,143.0
116.0,122.0,144.0
120.0,128.0,152.0
114.0,122.0,154.0
114.0,124.0,151.0
117.0,140.0,163.0
122.0,234.0,178.0
141.0,325.0,277.0
145.0,440.0,406.0
250.0,638.0,690.0
366.0,824.0,1005.0
510.0,951.0,1023.0
603.0,985.0,917.0
652.0,981.0,774.0
671.0,943.0,658.0
653.0,906.0,598.0
626.0,799.0,507.0
574.0,763.0,447.0
547.0,717.0,423.0
504.0,654.0,401.0
480.0,624.0,375.0
437.0,593.0,459.0
406.0,554.0,415.0
353.0,530.0,386.0
340.0,490.0,467.0
317.0,480.0,495.0
311.0,440.0,518.0
287.0,404.0,508.0
243.0,345.0,489.0
239.0,354.0,476.0
212.0,330.0,473.0
185.0,307.0,500.0
213.0,304.0,506.0
189.0,294.0,503.0
182.0,326.0,460.0
169.0,307.0,477.0
162.0,308.0,485.0
165.0,318.0,509.0
178.0,310.0,496.0
167.0,352.0,503.0
166.0,387.0,469.0
161.0,339.0,531.0
167.0,310.0,510.0
153.0,259.0,435.0
158.0,257.0,470.0
168.0,288.0,496.0
161.0,324.0,478.0
168.0,332.0,459.0
167.0,361.0,401.0
155.0,333.0,435.0
155.0,361.0,405.0
167.0,376.0,426.0
161.0,361.0,387.0
164.0,396.0,374.0
151.0,324.0,344.0
152.0,376.0,344.0
157.0,371.0,373.0
160.0,350.0,389.0
155.0,349.0,439.0
145.0,386.0,395.0
149.0,353.0,445.0
146.0,350.0,453.0
160.0,337.0,455.0
150.0,322.0,458.0
156.0,306.0,429.0
155.0,278.0,399.0
154.0,272.0,387.0
153.0,277.0,353.0
149.0,256.0,370.0
159.0,254.0,352.0
150.0,275.0,335.0
153.0,306.0,360.0
169.0,300.0,312.0
154.0,278.0,329.0
142.0,334.0,317.0
151.0,315.0,337.0
153.0,306.0,354.0
158.0,287.0,352.0
169.0,366.0,352.0
168.0,347.0,433.0
179.0,374.0,401.0
163.0,327.0,351.0
161.0,278.0,351.0
152.0,242.0,390.0
153.0,223.0,352.0
152.0,238.0,361.0
157.0,256.0,353.0
163.0,247.0,357.0
162.0,240.0,357.0
152.0,236.0,336.0
164.0,243.0,369.0
160.0,230.0,421.0
169.0,271.0,421.0
168.0,281.0,371.0
163.0,266.0,351.0
165.0,331.0,342.0
165.0,309.0,300.0
163.0,307.0,280.0
115.0,128.0,131.0
114.0,124.0,127.0
116.0,125.0,124.0
114.0,126.0,127.0
111.0,123.0,127.0
116.0,138.0,137.0
118.0,308.0,202.0
127.0,335.0,296.0
164.0,420.0,464.0
245.0,672.0,695.0
405.0,825.0,906.0
552.0,905.0,871.0
653.0,946.0,657.0
700.0,944.0,541.0
706.0,894.0,436.0
678.0,827.0,430.0
633.0,772.0,417.0
583.0,745.0,394.0
524.0,681.0,426.0
493.0,602.0,470.0
441.0,563.0,474.0
386.0,537.0,509.0
349.0,510.0,487.0
321.0,478.0,484.0
300.0,555.0,437.0
268.0,510.0,440.0
261.0,456.0,501.0
266.0,370.0,540.0
242.0,382.0,515.0
238.0,364.0,483.0
235.0,327.0,474.0
226.0,326.0,537.0
242.0,346.0,526.0
205.0,319.0,492.0
183.0,280.0,523.0
173.0,259.0,523.0
165.0,286.0,588.0
167.0,345.0,520.0
176.0,298.0,514.0
183.0,308.0,496.0
174.0,311.0,507.0
161.0,309.0,464.0
149.0,322.0,416.0
145.0,316.0,390.0
151.0,351.0,392.0
185.0,412.0,437.0
163.0,380.0,501.0
163.0,370.0,486.0
153.0,355.0,420.0
156.0,350.0,507.0
163.0,300.0,436.0
184.0,285.0,525.0
180.0,319.0,536.0
180.0,330.0,475.0
208.0,364.0,471.0
204.0,351.0,495.0
185.0,348.0,443.0
200.0,373.0,428.0
201.0,354.0,451.0
190.0,373.0,370.0
200.0,410.0,358.0
180.0,357.0,457.0
172.0,340.0,441.0
172.0,277.0,452.0
189.0,275.0,388.0
197.0,309.0,399.0
185.0,297.0,362.0
190.0,324.0,414.0
182.0,332.0,361.0
175.0,307.0,342.0
171.0,340.0,354.0
182.0,372.0,364.0
180.0,315.0,345.0
181.0,306.0,326.0
180.0,301.0,326.0
175.0,280.0,291.0
166.0,257.0,265.0
172.0,268.0,301.0
167.0,295.0,293.0
171.0,314.0,269.0
173.0,360.0,344.0
183.0,402.0,332.0
174.0,403.0,353.0
174.0,411.0,346.0
155.0,353.0,354.0
150.0,300.0,326.0
174.0,347.0,319.0
169.0,340.0,332.0
175.0,293.0,338.0
165.0,268.0,298.0
165.0,255.0,306.0
162.0,281.0,315.0
179.0,276.0,329.0
175.0,269.0,370.0
183.0,261.0,319.0
208.0,293.0,373.0
188.0,270.0,375.0
207.0,252.0,340.0
184.0,259.0,322.0
184.0,219.0,309.0
111.0,133.0,163.0
113.0,134.0,162.0
115.0,134.0,163.0
116.0,131.0,168.0
113.0,129.0,167.0
112.0,128.0,167.0
112.0,128.0,163.0
111.0,127.0,165.0
113.0,153.0,176.0
116.0,343.0,258.0
123.0,359.0,325.0
167.0,395.0,545.0
236.0,500.0,823.0
388.0,651.0,955.0
495.0,710.0,897.0
590.0,770.0,685.0
629.0,746.0,551.0
618.0,732.0,503.0
593.0,712.0,445.0
553.0,661.0,472.0
512.0,635.0,396.0
466.0,594.0,404.0
422.0,543.0,390.0
400.0,539.0,407.0
346.0,558.0,408.0
328.0,556.0,421.0
302.0,511.0,402.0
270.0,468.0,375.0
278.0,565.0,403.0
243.0,449.0,429.0
217.0,438.0,372.0
208.0,379.0,436.0
195.0,388.0,374.0
191.0,386.0,418.0
188.0,392.0,397.0
197.0,380.0,424.0
184.0,342.0,508.0
181.0,357.0,470.0
192.0,326.0,482.0
178.0,313.0,442.0
176.0,277.0,404.0
164.0,322.0,387.0
158.0,286.0,401.0
187.0,273.0,377.0
171.0,313.0,452.0
169.0,284.0,450.0
188.0,259.0,424.0
167.0,279.0,418.0
180.0,312.0,457.0
176.0,346.0,447.0
181.0,393.0,453.0
186.0,372.0,394.0
180.0,375.0,393.0
168.0,385.0,423.0
176.0,341.0,389.0
200.0,328.0,380.0
180.0,360.0,356.0
168.0,337.0,333.0
182.0,354.0,377.0
180.0,416.0,357.0
173.0,398.0,365.0
161.0,393.0,336.0
155.0,351.0,301.0
158.0,332.0,325.0
172.0,380.0,392.0
182.0,383.0,372.0
170.0,328.0,368.0
178.0,333.0,373.0
170.0,285.0,355.0
187.0,297.0,356.0
171.0,305.0,369.0
162.0,270.0,324.0
163.0,293.0,324.0
164.0,315.0,326.0
159.0,303.0,326.0
159.0,275.0,302.0
168.0,289.0,329.0
172.0,310.0,309.0
182.0,319.0,385.0
183.0,367.0,359.0
171.0,353.0,304.0
195.0,381.0,378.0
206.0,374.0,451.0
185.0,356.0,482.0
179.0,324.0,429.0
188.0,311.0,395.0
182.0,294.0,379.0
169.0,253.0,367.0
164.0,247.0,362.0
168.0,250.0,328.0
170.0,247.0,352.0
174.0,265.0,321.0
178.0,313.0,337.0
189.0,309.0,445.0
175.0,299.0,411.0
165.0,250.0,341.0
175.0,252.0,340.0
176.0,265.0,371.0
178.0,271.0,383.0
171.0,263.0,339.0
111.0,130.0,134.0
110.0,129.0,133.0
111.0,131.0,134.0
112.0,131.0,138.0
112.0,131.0,138.0
111.0,132.0,137.0
112.0,156.0,142.0
125.0,300.0,206.0
123.0,367.0,268.0
147.0,408.0,428.0
201.0,512.0,690.0
335.0,667.0,911.0
512.0,744.0,838.0
651.0,834.0,696.0
689.0,819.0,533.0
679.0,756.0,512.0
628.0,767.0,432.0
586.0,689.0,395.0
547.0,641.0,438.0
503.0,649.0,400.0
448.0,558.0,413.0
414.0,513.0,436.0
354.0,454.0,468.0
317.0,441.0,461.0
296.0,441.0,534.0
273.0,484.0,514.0
269.0,443.0,469.0
249.0,403.0,425.0
239.0,377.0,466.0
227.0,385.0,469.0
218.0,352.0,506.0
206.0,372.0,536.0
193.0,342.0,509.0
186.0,333.0,527.0
177.0,315.0,493.0
188.0,362.0,606.0
203.0,325.0,594.0
195.0,318.0,498.0
191.0,385.0,494.0
208.0,369.0,503.0
193.0,360.0,465.0
183.0,338.0,491.0
187.0,345.0,512.0
193.0,345.0,531.0
189.0,373.0,535.0
175.0,372.0,508.0
169.0,345.0,538.0
185.0,438.0,574.0
185.0,385.0,571.0
195.0,357.0,493.0
180.0,345.0,429.0
173.0,348.0,463.0
190.0,342.0,449.0
190.0,293.0,446.0
173.0,306.0,416.0
171.0,347.0,407.0
161.0,336.0,451.0
186.0,338.0,417.0
199.0,343.0,412.0
189.0,357.0,402.0
181.0,347.0,409.0
175.0,399.0,363.0
160.0,329.0,336.0
156.0,388.0,331.0
162.0,358.0,345.0
169.0,344.0,340.0
172.0,308.0,363.0
175.0,333.0,386.0
177.0,345.0,420.0
168.0,359.0,357.0
170.0,364.0,346.0
171.0,327.0,342.0
180.0,381.0,373.0
186.0,386.0,427.0
181.0,381.0,413.0
175.0,353.0,361.0
164.0,331.0,350.0
174.0,290.0,446.0
164.0,310.0,450.0
152.0,306.0,460.0
162.0,320.0,423.0
161.0,333.0,408.0
153.0,296.0,392.0
151.0,311.0,366.0
152.0,339.0,360.0
160.0,325.0,386.0
157.0,325.0,366.0
160.0,294.0,355.0
166.0,282.0,355.0
179.0,348.0,312.0
174.0,281.0,289.0
177.0,325.0,292.0
172.0,356.0,349.0
160.0,322.0,332.0
164.0,327.0,360.0
161.0,307.0,394.0
163.0,280.0,442.0
166.0,316.0,441.0
156.0,313.0,405.0
156.0,304.0,400.0
116.0,139.0,133.0
114.0,136.0,132.0
116.0,134.0,130.0
113.0,132.0,129.0
116.0,137.0,142.0
115.0,136.0,144.0
122.0,248.0,209.0
125.0,388.0,289.0
140.0,374.0,380.0
187.0,428.0,539.0
328.0,539.0,758.0
479.0,625.0,918.0
589.0,673.0,904.0
634.0,745.0,696.0
628.0,732.0,572.0
589.0,674.0,488.0
578.0,674.0,437.0
526.0,633.0,455.0
479.0,663.0,405.0
436.0,718.0,411.0
400.0,686.0,403.0
391.0,662.0,362.0
449.0,582.0,408.0
463.0,583.0,361.0
431.0,627.0,364.0
343.0,568.0,336.0
306.0,626.0,379.0
271.0,524.0,339.0
226.0,557.0,357.0
213.0,561.0,359.0
196.0,475.0,372.0
169.0,462.0,340.0
169.0,414.0,372.0
174.0,410.0,377.0
170.0,431.0,358.0
159.0,377.0,379.0
157.0,348.0,353.0
153.0,325.0,391.0
144.0,311.0,388.0
149.0,319.0,368.0
151.0,314.0,347.0
154.0,359.0,323.0
154.0,424.0,309.0
151.0,428.0,297.0
146.0,360.0,291.0
143.0,374.0,282.0
137.0,373.0,311.0
156.0,384.0,327.0
154.0,361.0,362.0
158.0,335.0,295.0
147.0,323.0,292.0
154.0,327.0,282.0
152.0,299.0,281.0
150.0,308.0,301.0
142.0,314.0,279.0
142.0,278.0,272.0
142.0,255.0,240.0
133.0,309.0,225.0
141.0,336.0,233.0
150.0,352.0,251.0
159.0,288.0,257.0
166.0,280.0,249.0
175.0,291.0,240.0
185.0,320.0,245.0
189.0,331.0,224.0
183.0,364.0,259.0
196.0,366.0,256.0
190.0,323.0,266.0
189.0,330.0,271.0
199.0,304.0,282.0
188.0,238.0,269.0
196.0,237.0,257.0
211.0,269.0,235.0
203.0,246.0,256.0
217.0,319.0,278.0
209.0,298.0,254.0
215.0,334.0,304.0
204.0,289.0,266.0
198.0,247.0,284.0
190.0,219.0,248.0
192.0,201.0,247.0
185.0,225.0,226.0
182.0,217.0,222.0
195.0,231.0,235.0
186.0,216.0,242.0
199.0,216.0,235.0
208.0,227.0,279.0
200.0,228.0,285.0
208.0,238.0,299.0
202.0,205.0,361.0
